sample,t_ms,ch1_uv
0,92898.46,186847.4856
1,92938.16,186803.3856
2,92957.95,186863.8471
3,92997.58,186747.8639
4,93018.04,186799.4964
5,93037.89,186806.5819
6,93059.14,186826.5197
7,93077.50,186870.0162
8,93097.95,186857.6556
9,93117.83,186839.6625
10,93137.62,186845.1834
11,93197.97,186810.4935
12,93217.80,186877.4593
13,93277.24,186828.1066
14,93397.98,186895.7877
15,93437.97,186840.8918
16,93457.82,186826.4750
17,93497.77,186871.2455
18,93517.56,186871.6255
19,93557.79,186852.3806
20,93578.12,186849.2067
21,93617.80,186837.9191
22,93637.64,186868.5409
23,93657.45,186784.0514
24,93677.31,186831.8170
25,93697.44,186851.3301
26,93717.34,186805.8220
27,93737.18,186861.0308
28,93757.00,186907.6118
29,93776.81,186855.2864
30,93797.00,186826.5197
31,93816.86,186878.3087
32,93837.27,186796.8813
33,93857.05,186850.4137
34,93876.86,186815.8579
35,93897.41,186828.2184
36,93916.77,186748.3556
37,93956.97,186827.7490
38,93976.79,186837.1144
39,94397.42,186705.1721
40,94417.24,186911.8810
41,94576.60,186779.1340
42,94696.74,186839.0366
43,94777.45,186785.3925
44,94796.70,186756.9834
45,156418.55,186872.4972
46,161834.65,186364.4645
47,161854.52,186564.0208
48,161874.69,186944.5145
49,201291.41,186877.8616
50,201311.76,186822.8763
51,201351.39,186858.1250
52,201371.23,186856.3145
53,201431.21,186896.4806
54,201451.08,186793.9532
55,201471.53,186832.6664
56,201511.16,186924.5097
57,201530.75,186829.4477
58,201551.23,186833.4934
59,201571.07,186887.0482
60,201591.51,186846.8374
61,201670.96,186885.6177
62,201690.83,186898.7828
63,201710.67,186957.9926
64,201730.69,186913.5126
65,201750.56,186880.8791
66,201771.03,186842.8588
67,201790.91,186880.6109
68,201810.74,186810.9629
69,201833.44,186834.5886
70,201850.27,186781.9056
71,201870.70,186799.1164
72,201891.16,186843.6858
73,201911.01,186827.0785
74,201930.87,186868.4962
75,201950.65,186915.9266
76,201970.52,186887.0258
77,201990.40,186847.3962
78,202010.25,186890.2221
79,202030.72,186792.0086
80,202050.79,186852.8500
81,202070.68,186825.8938
82,202090.52,186826.8102
83,202110.41,186829.7607
84,202130.28,186866.9540
85,202152.40,186885.0589
86,202170.49,186847.3738
87,202190.37,186877.0123
88,202210.21,186799.8093
89,202230.64,186856.7169
90,202250.44,186788.3429
91,202270.31,186795.1378
92,202290.75,186822.5187
93,202310.57,186922.7663
94,202330.35,186794.8920
95,202350.16,186892.8149
96,202370.25,186764.6500
97,202390.07,186772.1155
98,202410.50,186831.0794
99,202430.32,186879.3368
100,202450.13,186729.9154
101,202470.80,186856.7616
102,202490.11,186868.2951
103,202509.95,186802.4468
104,202530.39,186758.7492
105,202550.25,186793.7073
106,202570.06,186758.7045
107,202589.86,186786.1971
108,202609.74,186832.7335
109,202630.18,186755.3741
110,202649.99,186844.9152
111,202669.80,186843.3282
112,202690.16,186831.9511
113,202710.00,186847.6868
114,202729.81,186814.0474
115,202750.23,186890.5798
116,202770.05,186853.0735
117,202790.25,186808.6606
118,202810.08,186908.7294
119,202829.88,186903.3650
120,202849.67,186883.2484
121,202870.08,186814.0697
122,202889.96,186828.7548
123,202909.79,186854.0570
124,202929.65,186882.7119
125,202949.86,186797.9094
126,202970.22,186823.4575
127,202990.02,186816.7967
128,203009.89,186907.5000
129,203029.77,186803.4303
130,203049.74,186838.2990
131,203069.71,186864.2047
132,203089.65,186826.6314
133,203109.52,186847.8209
134,203130.01,186893.9772
135,203149.83,186788.8793
136,203169.69,186862.5283
137,203189.85,186907.3883
138,203209.80,186874.8441
139,203229.65,186829.3583
140,203249.48,186846.8598
141,203269.93,186859.4214
142,203289.68,186845.5857
143,203309.81,186823.9492
144,203329.64,186907.7459
145,203349.44,186895.9889
146,203369.24,186733.8717
147,203389.66,186852.2912
148,203409.90,186986.8934
149,203429.83,186844.8928
150,203449.68,186862.7742
151,203469.51,186890.2892
152,203493.39,186896.1900
153,203509.63,186900.3475
154,203529.47,186886.8917
155,203549.29,186764.6277
156,203569.76,186782.7773
157,203589.01,186810.0017
158,203609.85,186850.8160
159,203629.15,186800.4128
160,203649.65,186864.1153
161,203669.50,186819.3001
162,203691.35,186829.5372
163,203709.45,186789.0134
164,203729.30,186873.0560
165,203749.19,186939.7089
166,203769.63,186896.3912
167,203789.48,186831.3253
168,203809.31,186868.7645
169,203829.16,186826.7432
170,203849.05,186834.2310
171,203869.48,186856.9627
172,203889.33,186802.1339
173,203909.58,186842.7694
174,203929.44,186908.6847
175,203949.27,186868.5856
176,203969.14,186862.0813
177,203989.58,186898.8276
178,204009.21,186832.9793
179,204029.10,186846.3680
180,204049.56,186879.8062
181,204069.38,186871.0443
182,204089.21,186868.5409
183,204109.04,186814.8297
184,204129.35,186839.7519
185,204149.21,186882.2202
186,204168.98,186821.2000
187,204188.81,186893.3067
188,204208.94,186862.3719
189,204228.80,186877.0346
190,204248.65,186809.7559
191,204269.08,186885.9082
192,204288.90,186858.1250
193,204309.52,186789.8181
194,204328.77,186920.0394
195,204348.59,186855.2417
196,204369.02,186919.1453
197,204388.84,186877.9510
198,204408.64,186826.8102
199,204428.70,186807.3642
200,204448.54,186833.4264
201,204469.04,186850.6819
202,204488.84,186746.4557
203,204508.67,186826.3856
204,204529.02,186881.3932
205,204548.91,186910.1152
206,204568.76,186818.5848
207,204588.59,186764.2701
208,204609.04,186842.0541
209,204632.94,186845.3845
210,204648.60,186877.8616
211,204669.04,187027.5512
212,204688.88,186815.4556
213,204708.69,186823.7481
214,204728.59,186831.0124
215,204748.44,186789.5275
216,204768.92,186851.1736
217,204788.76,186796.0095
218,204808.58,186841.6518
219,204828.41,186858.7062
220,204848.38,186993.9789
221,204868.85,186831.1018
222,204888.68,186868.0716
223,204908.55,186849.5420
224,204928.40,186888.6352
225,204948.77,186785.5489
226,204968.57,186923.3251
227,204988.40,186887.1376
228,205008.82,186858.0356
229,205028.64,186839.5507
230,205048.56,186929.2483
231,205068.53,186869.7256
232,205088.42,186911.3445
233,205108.24,186824.2621
234,205128.66,186885.8412
235,205148.55,186890.9597
236,205168.78,186867.6692
237,205188.63,186877.1687
238,205208.46,186893.1726
239,205228.27,186817.2884
240,205248.71,186856.2698
241,205268.40,186824.4410
242,205288.24,186825.4021
243,205308.07,186813.3321
244,205328.56,186797.5295
245,205348.41,186910.6963
246,205368.43,186840.5342
247,205388.31,186839.8860
248,205408.15,186891.4515
249,205428.58,186824.0163
250,205448.59,186960.9430
251,205468.43,186847.9550
252,205488.21,186833.4040
253,205508.07,186870.9102
254,205527.96,186845.0940
255,205548.45,186867.1328
256,205568.33,186847.9326
257,205588.32,186881.3932
258,205608.21,186863.5342
259,205628.05,186932.2658
260,205647.92,186906.0025
261,205668.40,186789.0134
262,205687.96,186893.6643
263,205708.44,186919.3241
264,205728.28,186856.4487
265,205748.09,186841.5847
266,205767.91,186845.8539
267,205792.11,186863.5565
268,205808.31,186906.5836
269,205828.16,186897.6653
270,205847.97,186838.8578
271,205867.79,186844.9822
272,205888.21,186868.9209
273,205907.97,186823.1669
274,205927.83,186933.2045
275,205948.27,186866.3058
276,205968.09,186835.6615
277,205987.91,186850.8384
278,206008.05,186837.9414
279,206027.93,186845.7869
280,206047.80,186818.7189
281,206067.62,186843.0823
282,206088.06,186895.0501
283,206128.26,186847.7762
284,206148.10,186837.8296
285,206167.94,186902.6944
286,206187.81,186807.1854
287,206207.63,186794.9367
288,206228.11,186824.2398
289,206247.96,186856.1804
290,206267.81,186788.7452
291,206287.63,186853.8335
292,206308.31,186807.6995
293,206327.83,186821.3117
294,206347.69,186827.0785
295,206367.51,186894.3572
296,206387.95,186840.2436
297,206407.75,186931.5505
298,206427.89,186825.4915
299,206447.79,186849.5643
300,206467.61,186888.5234
301,206487.43,186868.4068
302,206507.91,186821.6470
303,206527.95,186867.5351
304,206547.84,186827.0114
305,206567.67,186824.4633
306,206587.50,186829.1572
307,206607.32,186830.4536
308,206631.31,186794.6461
309,206647.46,186822.6975
310,206667.40,186794.3108
311,206687.34,186854.7723
312,206707.80,186811.4993
313,206727.64,186932.5563
314,206747.69,186870.8655
315,206767.54,186910.7410
316,206787.37,186805.4196
317,206807.20,186801.1057
318,206827.63,186853.8558
319,206847.65,186797.5295
320,206867.53,186829.3807
321,206887.34,186841.5177
322,206907.22,186857.5439
323,206927.61,186872.0055
324,206967.69,186818.0484
325,206987.54,186886.2212
326,207007.39,186846.7256
327,207027.22,186903.6108
328,207047.63,186896.4136
329,207067.42,186876.0958
330,207087.13,186860.8072
331,207107.53,186806.4702
332,207127.35,186903.0073
333,207147.18,186958.1044
334,207167.10,186911.8810
335,207187.57,186923.8615
336,207207.40,186810.7170
337,207227.29,186877.1017
338,207247.16,186841.8306
339,207287.24,186798.6023
340,207306.96,186838.7684
341,207327.37,186949.4766
342,207347.14,186772.7861
343,207366.92,186913.9597
344,207387.23,186781.2574
345,207407.04,186831.1688
346,207426.89,186877.3475
347,207447.34,186869.4127
348,207467.20,186819.7247
349,207486.85,186917.0889
350,207507.35,186941.0053
351,207527.23,186817.8025
352,207547.08,186845.4963
353,207566.93,186783.8278
354,207607.33,186866.3952
355,207627.12,186901.1298
356,207646.95,186836.3321
357,207666.77,186907.7459
358,207687.21,186849.8772
359,207706.76,186852.6712
360,207726.71,186744.0641
361,207747.19,186941.9441
362,207767.04,186863.5118
363,207786.89,186981.2161
364,207806.99,186950.3707
365,207826.86,186769.9474
366,207846.72,186860.2931
367,207866.57,186806.0678
368,207887.03,186897.3523
369,207910.45,186829.2242
370,207926.74,186818.5848
371,207946.59,186776.6306
372,207967.05,186847.2174
373,207986.87,186834.3651
374,208006.73,186831.4147
375,208027.00,186857.0298
376,208046.87,186845.7422
377,208066.71,186802.1116
378,208086.59,186842.6129
379,208106.43,186868.8092
380,208127.01,186760.2244
381,208146.90,186877.7275
382,208166.75,186867.5798
383,208186.59,186939.5077
384,208206.42,186842.3894
385,208229.38,186834.1193
386,208246.23,186826.2738
387,208266.70,186816.7520
388,208286.58,186932.1540
389,208306.39,186863.5565
390,208326.82,186899.2746
391,208346.43,186844.9599
392,208366.30,186812.1698
393,208386.77,186888.9034
394,208406.61,186831.3253
395,208426.44,186934.4786
396,208446.35,186822.3399
397,208466.22,186822.3846
398,208486.62,186771.9367
399,208506.46,186775.3118
400,208526.29,186880.4544
401,208549.78,186905.2872
402,208566.09,186891.9656
403,208586.55,186854.5711
404,208606.38,186793.2156
405,208626.20,186850.9501
406,208646.71,186805.3302
407,208666.38,186948.0237
408,208686.25,186913.0880
409,208706.07,186894.3572
410,208726.57,186805.0173
411,208746.39,186843.0600
412,208766.41,186776.5188
413,208786.20,186874.9335
414,208806.07,186891.9209
415,208825.92,186871.6702
416,208846.36,186832.4652
417,208866.30,186973.1918
418,208886.11,186897.2629
419,208906.56,186843.9540
420,208926.36,186893.9102
421,208946.18,186872.1172
422,208985.98,186836.7791
423,209006.45,186824.2621
424,209026.28,186818.5401
425,209046.10,186859.1756
426,209065.97,186897.5535
427,209085.79,186926.6331
428,209106.26,186875.8500
429,209126.09,186865.7693
430,209145.96,186826.8102
431,209165.77,186798.6917
432,209185.69,186890.7139
433,209206.17,186838.8131
434,209226.08,186852.2018
435,209245.97,186864.7188
436,209265.80,186849.5196
437,209286.93,186752.4907
438,209306.27,186864.4729
439,209326.12,186828.5537
440,209345.95,186826.2067
441,209365.78,186900.4592
442,209385.61,186797.7306
443,209405.90,186815.3661
444,209425.77,186834.6557
445,209445.62,186903.5214
446,209466.07,186802.9386
447,209485.95,186931.1705
448,209505.54,186815.2320
449,209525.99,186875.6711
450,209545.84,186845.9657
451,209565.67,186883.0025
452,209585.50,186864.9647
453,209609.82,186838.9025
454,209625.50,186817.2660
455,209645.96,186862.0813
456,209665.78,186786.3536
457,209685.60,186784.8113
458,209705.46,186939.8430
459,209725.74,186898.9840
460,209745.59,186887.7634
461,209765.49,186840.8695
462,209785.32,186844.3787
463,209805.77,186854.7723
464,209825.78,186955.6010
465,209845.65,186864.6741
466,209865.50,186892.0773
467,209885.34,186907.0530
468,209905.80,186901.9568
469,209945.42,186810.2252
470,209965.33,186950.8848
471,209985.79,186856.9627
472,210005.61,186933.9868
473,210025.48,186958.9761
474,210045.45,186841.8306
475,210065.36,186789.5499
476,210085.83,186861.1202
477,210105.66,186782.0621
478,210125.49,186846.0551
479,210145.88,186823.2340
480,210165.22,186900.2804
481,210185.71,186858.8179
482,210205.54,186902.9179
483,210225.37,186851.6430
484,210265.53,186861.7684
485,210285.46,186823.3681
486,210305.33,186914.4738
487,210325.16,186812.4381
488,210345.62,186753.1389
489,210365.20,186841.2718
490,210385.07,186789.5052
491,210405.53,186783.7831
492,210425.35,186861.1872
493,210445.18,186837.1367
494,210465.26,186869.8150
495,210485.12,186867.9821
496,210504.95,186823.3904
497,210525.44,186781.9950
498,210545.26,186803.0056
499,210585.38,186783.6267
500,210605.45,186828.9560
501,210625.34,186816.1485
502,210645.18,186837.6955
503,210665.01,186837.4497
504,210685.37,186820.4176
505,210705.23,186886.6235
506,210725.08,186816.4390
507,210744.90,186810.7393
508,210765.36,186882.4661
509,210785.10,186808.9512
510,210805.07,186808.3254
511,210824.94,186830.1407
512,210844.85,186842.9482
513,210864.71,186800.8152
514,210905.20,186732.2624
515,210925.06,186798.7365
516,210944.90,186859.2203
517,210964.72,186793.0368
518,210985.17,186803.0503
519,211005.11,186743.9523
520,211024.95,186775.5353
521,211044.83,186764.9183
522,211064.68,186873.0336
523,211085.13,186867.6692
524,211104.64,186830.7665
525,211124.55,186801.5304
526,211145.03,186792.3215
527,211164.87,186827.9055
528,211184.75,186789.7511
529,211224.91,186877.8169
530,211244.79,186895.1172
531,211264.63,186860.8296
532,211284.46,186815.0309
533,211304.90,186797.7530
534,211324.69,186815.1650
535,211344.46,186796.3001
536,211364.88,186768.2710
537,211384.49,186876.9675
538,211406.54,186896.0336
539,211427.49,186788.6782
540,211444.22,186796.0766
541,211464.44,186759.1962
542,211484.68,186858.1250
543,211505.03,186856.9180
544,211544.74,186853.6547
545,211564.76,186823.2340
546,211584.56,186867.2445
547,211604.22,186839.5954
548,211624.53,186769.6792
549,211644.57,186855.8899
550,211664.40,186813.7792
551,211684.30,186751.4178
552,211704.22,186793.7520
553,211724.72,186788.2535
554,211744.86,186820.5294
555,211764.15,186777.1894
556,211784.46,186780.2516
557,211804.32,186822.3399
558,211824.13,186864.0706
559,211851.52,186768.1816
560,211864.25,186772.9649
561,211884.09,186818.7860
562,211904.48,186791.3380
563,211924.30,186828.3302
564,211944.11,186842.1212
565,211964.45,186837.3603
566,211984.31,186919.1676
567,212004.13,186802.1786
568,212023.99,186808.2136
569,212044.43,186835.5051
570,212064.68,186878.4651
571,212084.08,186843.3282
572,212103.94,186849.5420
573,212124.41,186824.6645
574,212144.25,186867.9374
575,212171.47,186873.2795
576,212184.33,186873.7936
577,212204.22,186766.4829
578,212224.11,186819.3224
579,212243.94,186799.4964
580,212263.82,186771.0426
581,212284.31,186694.8456
582,212304.22,186819.9483
583,212324.12,186827.8608
584,212343.95,186834.2087
585,212363.80,186876.2746
586,212384.66,186847.1950
587,212404.25,186787.3818
588,212424.08,186788.6335
589,212443.88,186767.3099
590,212463.66,186760.8726
591,212503.70,186817.9366
592,212524.21,186816.2602
593,212544.08,186772.7414
594,212563.83,186850.3466
595,212583.67,186887.7411
596,212604.15,186839.0143
597,212624.02,186808.9959
598,212643.84,186834.3204
599,212663.65,186738.9455
600,212683.47,186863.4447
601,212704.79,186829.0678
602,212723.66,186870.0162
603,212743.48,186821.6023
604,212763.90,186852.1795
605,212783.71,186763.0631
606,212803.48,186868.8092
607,212823.96,186857.4768
608,212843.81,186841.9871
609,212863.62,186905.3543
610,212883.47,186876.0735
611,212903.90,186925.6720
612,212924.58,186797.1271
613,212943.70,186816.1485
614,212963.67,186864.2271
615,212983.56,186838.6567
616,213003.45,186856.9851
617,213023.57,186863.8471
618,213043.94,186861.3213
619,213063.28,186908.9976
620,213083.76,186815.5673
621,213103.62,186874.1512
622,213123.48,186827.1455
623,213143.79,186852.4477
624,213163.76,186902.9626
625,213183.62,186880.4321
626,213203.48,186826.6761
627,213223.40,186849.9890
628,213247.31,186790.8686
629,213263.32,186877.1911
630,213283.22,186887.1152
631,213303.11,186926.5661
632,213323.60,186890.3339
633,213343.64,186881.6391
634,213363.52,186846.2786
635,213383.44,186886.4223
636,213403.35,186841.1154
637,213423.26,186909.4670
638,213443.64,186814.6285
639,213463.17,186871.3796
640,213483.19,186854.1017
641,213503.09,186875.6264
642,213523.01,186869.2562
643,213543.48,186836.5332
644,213583.35,186846.7480
645,213603.29,186749.6520
646,213623.24,186836.9803
647,213643.16,186798.6247
648,213671.17,186814.0250
649,213683.50,186875.0453
650,213703.45,186838.7684
651,213723.36,186852.4477
652,213743.27,186929.3600
653,213763.19,186879.4486
654,213782.92,186897.5535
655,213802.91,186913.2891
656,213823.46,186812.5498
657,213843.36,186841.9424
658,213863.27,186826.3856
659,213903.17,186856.2698
660,213923.11,186930.1423
661,213943.01,186888.3893
662,213962.94,186885.6400
663,213982.83,186863.1542
664,214002.79,186889.1940
665,214022.74,186814.6062
666,214043.24,186835.0804
667,214063.14,186885.8635
668,214083.02,186848.9608
669,214102.92,186916.0384
670,214122.95,186898.3805
671,214142.83,186850.6148
672,214162.71,186825.3350
673,214182.59,186865.6129
674,214202.96,186863.6236
675,214223.10,186825.7150
676,214242.97,186918.8324
677,214262.90,186906.6060
678,214282.78,186808.1018
679,214302.74,186877.9957
680,214323.09,186802.4468
681,214343.00,186849.6090
682,214362.93,186918.3406
683,214382.79,186906.2036
684,214402.67,186861.6119
685,214423.04,186833.0240
686,214443.00,186870.1726
687,214462.91,186830.4536
688,214482.74,186835.7062
689,214502.65,186872.4748
690,214526.58,186903.2085
691,214542.45,186806.8501
692,214562.28,186852.8277
693,214582.82,186832.4205
694,214602.69,186775.4236
695,214622.58,186915.1667
696,214642.62,186845.5857
697,214662.59,186869.7479
698,214682.42,186780.1175
699,214702.22,186809.8676
700,214722.71,186864.6964
701,214762.82,186837.0250
702,214782.06,186807.7889
703,214802.59,186886.6906
704,214822.42,186856.3816
705,214842.48,186876.8781
706,214862.41,186877.0346
707,214882.28,186860.2708
708,214902.15,186850.5254
709,214922.65,186876.3864
710,214942.52,186919.4359
711,214962.17,186862.9307
712,214982.10,186912.9762
713,215002.63,186850.2125
714,215022.42,186823.7704
715,215042.17,186760.4032
716,215065.72,186815.2767
717,215082.30,186807.2078
718,215102.24,186862.1260
719,215122.09,186918.4971
720,215141.91,186847.0609
721,215162.84,186887.9423
722,215182.08,186856.6275
723,215201.95,186888.1434
724,215222.40,186882.0414
725,215242.27,186889.9316
726,215262.13,186851.3301
727,215301.92,186811.2087
728,215322.44,186880.0521
729,215342.00,186834.0299
730,215361.84,186907.7012
731,215381.68,186877.0793
732,215401.82,186807.5654
733,215422.30,186828.7772
734,215442.21,186828.8890
735,215462.03,186756.2458
736,215481.84,186863.6236
737,215502.20,186820.2388
738,215522.17,186769.1651
739,215542.01,186713.5316
740,215561.83,186820.2165
741,215581.65,186847.5080
742,215606.13,186820.6188
743,215622.00,186926.9460
744,215641.86,186894.6925
745,215661.69,186838.8355
746,215682.17,186855.9793
747,215702.46,186826.8549
748,215721.88,186893.3514
749,215741.74,186811.6334
750,215761.73,186855.6663
751,215781.62,186893.1055
752,215802.10,186811.1864
753,215821.77,186860.4943
754,215841.81,186885.2377
755,215861.64,186916.6195
756,215882.13,186899.3193
757,215901.95,186826.0503
758,215925.53,186845.7645
759,215942.14,186864.1824
760,215961.38,186847.7985
761,215981.81,186924.1074
762,216001.66,186960.8313
763,216021.88,186761.3867
764,216041.72,186846.9268
765,216061.67,186802.3127
766,216081.43,186875.4700
767,216101.27,186896.7265
768,216121.73,186898.0229
769,216142.02,186910.9422
770,216161.27,186777.3011
771,216181.70,186787.8512
772,216201.51,186842.1659
773,216221.33,186856.6275
774,216245.46,186779.1787
775,216261.36,186754.2118
776,216281.20,186800.2564
777,216301.64,186846.5468
778,216321.49,186893.9996
779,216341.79,186873.2125
780,216361.60,186904.9296
781,216381.51,186859.1532
782,216401.26,186837.2038
783,216421.18,186907.8130
784,216441.66,186885.9082
785,216461.47,186810.5829
786,216481.34,186818.2272
787,216501.17,186897.2629
788,216521.00,186848.5585
789,216541.48,186924.3979
790,216562.08,186851.8665
791,216581.07,186844.2446
792,216601.54,186820.6188
793,216621.29,186848.8938
794,216641.09,186833.8734
795,216681.41,186856.4710
796,216701.25,186818.8754
797,216721.07,186805.0620
798,216741.49,186878.9122
799,216761.51,186875.0229
800,216781.10,186890.8033
801,216801.58,186794.1320
802,216821.35,186788.7005
803,216841.12,186868.4068
804,216861.53,186840.0648
805,216881.53,186845.5186
806,216901.31,186824.8209
807,216921.18,186868.2280
808,216940.94,186868.2727
809,216961.37,186796.5236
810,217001.04,186830.6994
811,217020.89,186841.9871
812,217040.66,186853.9006
813,217061.10,186924.9120
814,217081.15,186798.5800
815,217101.33,186761.0514
816,217121.15,186812.3040
817,217141.12,186843.5293
818,217161.03,186825.4468
819,217180.90,186858.3038
820,217201.17,186888.4563
821,217221.04,186828.0172
822,217240.94,186856.1357
823,217260.79,186835.3263
824,217281.24,186800.4128
825,217321.14,186878.6216
826,217341.03,186947.3085
827,217360.93,186895.6983
828,217380.76,186843.5517
829,217400.81,186790.3993
830,217420.65,186791.6286
831,217440.53,186856.8957
832,217461.05,186826.8102
833,217480.90,186842.7694
834,217500.74,186835.1698
835,217521.14,186843.3282
836,217540.70,186834.6334
837,217560.49,186831.0571
838,217581.06,186811.6558
839,217600.90,186846.6362
840,217623.09,186919.6370
841,217640.25,186830.8559
842,217660.73,186831.0571
843,217680.58,186866.7975
844,217700.42,186821.9823
845,217720.33,186823.3010
846,217740.81,186783.2467
847,217760.69,186785.4819
848,217780.54,186884.1648
849,217800.38,186912.4398
850,217820.27,186914.8090
851,217840.46,186798.4906
852,217860.50,186812.0357
853,217880.39,186926.7449
854,217900.25,186818.7636
855,217920.62,186864.8306
856,217940.53,186867.0434
857,217960.51,186857.2757
858,217980.38,186880.0744
859,218000.26,186857.1416
860,218020.69,186875.0006
861,218040.52,186827.3243
862,218062.93,186895.1395
863,218080.19,186866.9987
864,218100.70,186853.7217
865,218120.54,186847.8879
866,218140.30,186822.6752
867,218180.36,186858.3709
868,218200.24,186799.0941
869,218220.66,186860.5837
870,218240.44,186720.8406
871,218260.24,186816.3720
872,218280.66,186869.8373
873,218300.52,186841.8083
874,218320.38,186912.8644
875,218340.21,186925.7614
876,218360.01,186944.6039
877,218381.19,186873.9948
878,218400.51,186907.2765
879,218420.38,186776.5188
880,218440.25,186819.9036
881,218460.05,186841.8306
882,218484.49,186892.2561
883,218500.28,186893.2620
884,218520.10,186841.3836
885,218539.91,186871.9161
886,218560.37,186883.6284
887,218580.41,186902.6944
888,218600.34,186818.8307
889,218620.16,186800.7481
890,218639.90,186971.8730
891,218660.39,186807.7889
892,218680.26,186892.4797
893,218700.10,186859.1532
894,218719.93,186942.4358
895,218740.40,186863.6683
896,218760.23,186883.1143
897,218780.05,186885.8635
898,218820.08,186815.2544
899,218839.87,186914.7196
900,218860.30,186921.8275
901,218880.10,186920.5534
902,218919.87,186857.1863
903,218939.75,186928.4213
904,218960.17,186902.2474
905,218979.98,186873.0336
906,218999.78,186889.5516
907,219019.86,186830.3418
908,219039.83,186856.4487
909,219059.71,186878.3310
910,219079.51,186885.7741
911,219099.93,186868.0045
912,219123.41,186866.5293
913,219139.83,186941.6982
914,219159.68,186832.9346
915,219179.95,186957.5903
916,219199.77,186820.7753
917,219240.01,186744.6676
918,219259.87,186746.8581
919,219279.69,186841.3612
920,219299.52,186967.9615
921,219319.95,186919.3017
922,219339.80,186823.2563
923,219359.84,186812.2593
924,219379.65,186916.8207
925,219399.47,186856.4039
926,219419.28,186900.9510
927,219440.96,186875.4253
928,219459.84,186858.9744
929,219479.66,186937.1608
930,219499.49,186909.8246
931,219519.29,186803.4080
932,219559.24,186880.6779
933,219579.76,186886.7129
934,219599.63,186839.1708
935,219619.44,186857.3427
936,219639.25,186870.4185
937,219659.61,186820.9317
938,219679.45,186855.5546
939,219699.27,186820.8870
940,219719.13,186858.3262
941,219739.57,186881.3485
942,219762.65,186959.4902
943,219779.20,186955.2210
944,219799.65,186895.6983
945,219819.45,186800.3011
946,219839.26,186792.9250
947,219879.65,186906.0248
948,219899.51,186922.4533
949,219919.33,186885.5730
950,219939.16,186969.9955
951,219959.04,186827.8384
952,219979.72,186861.1872
953,219999.59,186816.6849
954,220019.41,186881.3261
955,220039.23,186813.3545
956,220059.05,186812.6839
957,220082.21,186874.7547
958,220098.74,186921.9616
959,220119.18,186919.7935
960,220139.03,186847.1056
961,220159.44,186894.5137
962,220199.43,186900.5263
963,220219.22,186855.0628
964,220239.05,186867.4904
965,220258.87,186809.4653
966,220279.52,186840.8248
967,220299.18,186842.6353
968,220318.98,186907.5224
969,220338.81,186911.8810
970,220359.25,186888.9257
971,220379.06,186891.3174
972,220401.84,186838.0979
973,220418.62,186833.4934
974,220438.94,186877.1464
975,220458.73,186815.3438
976,220479.17,186889.0598
977,220519.24,186864.8976
978,220539.17,186755.3294
979,220559.05,186882.2873
980,220578.88,186912.1045
981,220598.71,186939.0160
982,220618.73,186880.0521
983,220638.80,186860.7402
984,220658.63,186843.4176
985,220679.19,186853.5429
986,220699.04,186899.6099
987,220721.59,186828.9784
988,220738.41,186845.1834
989,220758.90,186904.7508
990,220778.73,186958.9090
991,220798.57,186907.2095
992,220838.58,186871.0220
993,220859.08,186930.4329
994,220878.92,186866.3952
995,220898.75,186828.6431
996,220919.17,186869.5244
997,220938.46,186937.1608
998,220958.95,186848.2903
999,220978.78,186895.7877
1000,220998.77,186980.3444
1001,221018.62,186855.5322
1002,221038.86,186927.5719
1003,221058.79,186840.5342
1004,221078.66,186907.2542
1005,221098.53,186851.8889
1006,221118.38,186793.0368
1007,221158.78,186818.1825
1008,221178.61,186938.6807
1009,221198.41,186792.9697
1010,221218.20,186983.7195
1011,221238.92,186852.8277
1012,221258.53,186838.4108
1013,221278.41,186904.1249
1014,221298.21,186966.7545
1015,221318.62,186909.6234
1016,221338.43,186920.8440
1017,221359.15,186971.3813
1018,221378.38,186969.2355
1019,221398.23,186927.1696
1020,221418.64,186875.8053
1021,221438.46,186893.1949
1022,221478.46,186876.6323
1023,221498.29,186889.1492
1024,221518.09,186943.3522
1025,221538.50,186890.5351
1026,221558.32,186895.8101
1027,221578.55,186909.6681
1028,221598.39,186830.3418
1029,221618.20,186813.0639
1030,221637.99,186894.7372
1031,221658.40,186849.9443
1032,221678.57,186902.7838
1033,221698.39,186950.4377
1034,221718.21,186858.7062
1035,221738.00,186859.2650
1036,221758.36,186903.6332
1037,221778.12,186880.5662
1038,221810.00,186774.3954
1039,221818.29,186911.5457
1040,221838.12,186949.8119
1041,221857.92,186909.1764
1042,221877.78,186892.1891
1043,221898.20,186881.9520
1044,221918.36,186841.9424
1045,221937.81,186805.0173
1046,221958.22,186746.8804
1047,221978.01,186865.2329
1048,221997.78,186921.6487
1049,222038.31,186918.9441
1050,222058.14,186949.6778
1051,222077.90,186875.2465
1052,222098.29,186930.3435
1053,222118.09,186923.4368
1054,222157.72,186853.0735
1055,222178.15,186790.1981
1056,222197.94,186903.4320
1057,222217.77,186902.9403
1058,222237.78,186881.4826
1059,222258.00,186886.2212
1060,222277.82,186834.9239
1061,222297.60,186913.4009
1062,222317.98,186830.1630
1063,222337.75,186908.5953
1064,222357.91,186772.2273
1065,222377.60,186847.6644
1066,222398.06,186902.7391
1067,222417.87,186833.0017
1068,222437.67,186800.8599
1069,222457.45,186795.3837
1070,222478.02,186844.8928
1071,222497.91,186802.5810
1072,222517.77,186874.7994
1073,222537.56,186926.2978
1074,222557.96,186809.7112
1075,222597.44,186831.5712
1076,222617.88,186815.1203
1077,222637.67,186829.8724
1078,222657.46,186870.7314
1079,222677.94,186861.4331
1080,222717.54,186910.2046
1081,222737.38,186887.3835
1082,222757.80,186827.0114
1083,222777.59,186824.1727
1084,222797.34,186886.8247
1085,222818.00,186879.4933
1086,222837.27,186793.1932
1087,222857.75,186891.0715
1088,222877.54,186799.2058
1089,222897.34,186829.2689
1090,222917.90,186826.5197
1091,222937.70,186829.3136
1092,222957.52,186859.7567
1093,222977.32,186858.2815
1094,222997.14,186821.5129
1095,223017.55,186772.1379
1096,223037.73,186831.9288
1097,223057.33,186823.5692
1098,223077.18,186882.2426
1099,223097.61,186842.0094
1100,223117.37,186831.8841
1101,223157.54,186878.6439
1102,223177.39,186928.0189
1103,223197.22,186817.8248
1104,223217.03,186894.9160
1105,223237.66,186851.6430
1106,223257.65,186845.0269
1107,223277.49,186827.9055
1108,223297.42,186927.7731
1109,223317.27,186808.2359
1110,223337.08,186874.1959
1111,223377.01,186905.8013
1112,223397.44,186852.5594
1113,223417.28,186882.8908
1114,223437.06,186797.8200
1115,223457.46,186912.3504
1116,223477.08,186778.0611
1117,223496.94,186957.9926
1118,223516.77,186887.2494
1119,223537.16,186856.7169
1120,223556.96,186842.5682
1121,223579.86,186882.5331
1122,223596.68,186846.8150
1123,223617.18,186822.5858
1124,223637.34,186832.5323
1125,223657.31,186875.4923
1126,223699.11,186846.8374
1127,223717.05,186871.3796
1128,223736.74,186854.3699
1129,223757.18,186768.2710
1130,223776.60,186892.6361
1131,223817.15,186898.1570
1132,223837.52,186774.2389
1133,223857.07,186840.6236
1134,223876.77,186811.6334
1135,223896.66,186941.5864
1136,223936.69,186833.6499
1137,223957.04,186874.3971
1138,223976.81,186838.2543
1139,223996.66,186812.7957
1140,224016.47,186888.2775
1141,224056.71,186905.2649
1142,224076.51,186942.5476
1143,224096.91,186850.9948
1144,224116.69,186830.3195
1145,224136.54,186863.3330
1146,224156.50,186959.1773
1147,224177.07,186834.8122
1148,224196.90,186802.9386
1149,224216.69,186884.4107
1150,224236.54,186913.4009
1151,224256.33,186930.4553
1152,224276.63,186991.8332
1153,224296.45,186975.8070
1154,224316.25,186852.7383
1155,224336.65,186966.4863
1156,224356.44,186918.5194
1157,224377.44,186859.6449
1158,224396.75,186878.0851
1159,224416.57,186818.9424
1160,224436.33,186944.1122
1161,224456.75,186880.1638
1162,224496.84,186881.5050
1163,224516.67,186901.5321
1164,224536.52,186875.4923
1165,224556.32,186930.6341
1166,224576.73,186881.5720
1167,224616.38,186975.6728
1168,224636.22,186954.3269
1169,224656.69,186841.4953
1170,224676.52,186918.5418
1171,224696.34,186833.0687
1172,224716.53,186861.2990
1173,224736.35,186817.2437
1174,224756.15,186931.7293
1175,224776.54,186952.6953
1176,224796.33,186943.5310
1177,224818.12,186845.7198
1178,224836.19,186848.8044
1179,224856.35,186923.4145
1180,224876.09,186876.9228
1181,224896.47,186862.3495
1182,224936.15,186890.6468
1183,224955.86,186881.8179
1184,224976.25,186887.0258
1185,224996.06,186890.1998
1186,225015.90,186841.0036
1187,225036.40,186877.0570
1188,225056.13,186845.8986
1189,225075.95,186809.1077
1190,225096.35,186772.6296
1191,225116.15,186824.7539
1192,225138.34,186920.7323
1193,225156.26,186900.3028
1194,225176.11,186847.4185
1195,225195.88,186905.7789
1196,225215.74,186869.4350
1197,225256.36,186862.7965
1198,225276.19,186895.9442
1199,225296.05,186917.5583
1200,225315.83,186808.2359
1201,225336.25,186887.0258
1202,225355.86,186888.2775
1203,225376.36,186805.3079
1204,225396.18,186965.9498
1205,225415.91,186940.4018
1206,225435.72,186844.7140
1207,225459.55,186830.5877
1208,225475.64,186854.9287
1209,225496.09,186865.8811
1210,225515.73,186877.5487
1211,225536.17,186841.0707
1212,225575.88,186860.3826
1213,225595.73,186904.3261
1214,225615.54,186848.8491
1215,225635.95,186924.8003
1216,225655.76,186813.3545
1217,225675.74,186924.4426
1218,225696.13,186791.2039
1219,225715.94,186857.7227
1220,225735.71,186901.6215
1221,225755.52,186987.8992
1222,225778.22,186910.4505
1223,225795.21,186931.0141
1224,225815.62,186891.8762
1225,225835.43,186847.9326
1226,225855.86,186753.3177
1227,225895.38,186903.4097
1228,225915.74,186884.0083
1229,225935.50,186860.1590
1230,225955.31,186844.6022
1231,225975.88,186879.4262
1232,225995.54,186908.4835
1233,226015.35,186861.5001
1234,226035.79,186823.7928
1235,226055.59,186795.9648
1236,226075.41,186950.4601
1237,226095.78,186911.5680
1238,226115.57,186890.2221
1239,226135.34,186816.4167
1240,226155.75,186931.9528
1241,226175.52,186865.3893
1242,226195.31,186880.5438
1243,226235.61,186885.4612
1244,226255.31,186809.1077
1245,226275.72,186833.7840
1246,226295.51,186874.2630
1247,226315.29,186852.9618
1248,226339.69,186874.6877
1249,226355.49,186826.0726
1250,226375.43,186776.9435
1251,226395.25,186882.3990
1252,226415.66,186902.1356
1253,226435.42,186901.6215
1254,226475.62,186937.5184
1255,226495.44,186778.3293
1256,226515.26,186883.5837
1257,226535.05,186909.6011
1258,226575.09,186868.4292
1259,226595.48,186819.4789
1260,226615.31,187034.2791
1261,226635.09,186835.7733
1262,226654.89,186811.9463
1263,226676.20,186845.5186
1264,226695.15,186800.6587
1265,226714.96,186846.5245
1266,226734.81,186805.7549
1267,226755.20,186875.4253
1268,226774.99,186815.1203
1269,226798.51,186929.1589
1270,226814.89,186959.5125
1271,226835.31,186912.4621
1272,226855.10,186900.8616
1273,226874.89,186876.1852
1274,226915.11,186976.2316
1275,226934.88,186798.6694
1276,226955.21,186793.7744
1277,226974.97,186844.6246
1278,226994.80,186826.0056
1279,227035.17,186775.2001
1280,227054.87,186808.3030
1281,227075.28,186996.3706
1282,227095.04,186841.4506
1283,227114.83,186921.4252
1284,227154.76,186914.6526
1285,227174.52,186846.8598
1286,227194.95,186828.5537
1287,227214.79,186910.8751
1288,227234.59,186810.7840
1289,227275.00,186873.7936
1290,227294.80,186899.8334
1291,227314.60,186877.5710
1292,227334.36,186887.8305
1293,227355.02,186889.1269
1294,227374.81,186846.4127
1295,227394.69,186792.2097
1296,227414.50,186818.3166
1297,227434.91,186854.2582
1298,227454.69,186908.5953
1299,227474.47,186910.4058
1300,227494.42,186881.0579
1301,227514.89,186713.4422
1302,227534.69,186861.2096
1303,227554.46,186904.4378
1304,227574.86,186920.3076
1305,227614.84,186840.7577
1306,227634.67,186849.8102
1307,227654.47,186852.5818
1308,227674.87,186858.6615
1309,227714.47,186827.2796
1310,227734.27,186863.3330
1311,227754.69,186938.0102
1312,227774.45,186848.0220
1313,227794.24,186784.2078
1314,227815.48,186903.7896
1315,227834.31,186906.1813
1316,227854.81,186833.3817
1317,227874.60,186843.2164
1318,227894.39,186881.9967
1319,227914.18,186894.9383
1320,227935.65,186922.1404
1321,227954.28,186921.2911
1322,227974.71,186826.7208
1323,227994.49,186950.5271
1324,228014.22,186829.5148
1325,228054.65,186868.4292
1326,228074.46,186948.5825
1327,228094.20,186840.8248
1328,228113.97,186850.6148
1329,228147.85,186855.0181
1330,228154.39,186838.0085
1331,228174.25,186956.2715
1332,228194.02,186852.9618
1333,228214.55,186849.8549
1334,228234.50,186866.8869
1335,228254.56,186919.2794
1336,228274.47,186933.1598
1337,228294.24,186971.6942
1338,228314.06,186990.3132
1339,228334.47,186908.8411
1340,228354.26,186869.2115
1341,228376.44,186914.9879
1342,228393.59,186881.5050
1343,228414.07,186895.9442
1344,228433.80,186889.7527
1345,228454.04,186871.9831
1346,228473.82,186924.5544
1347,228514.38,186806.3807
1348,228534.19,186929.7847
1349,228553.99,186858.9297
1350,228573.77,186901.8450
1351,228614.02,186832.5099
1352,228633.84,186807.0066
1353,228654.23,186895.0948
1354,228674.07,186892.6585
1355,228694.23,186906.8518
1356,228714.26,186913.0880
1357,228734.10,186843.6188
1358,228753.88,186831.8617
1359,228773.65,186853.4535
1360,228794.05,186881.7508
1361,228815.05,186873.2348
1362,228834.00,186881.0803
1363,228853.79,186845.1610
1364,228873.58,186896.4359
1365,228893.96,186870.3067
1366,228934.11,186840.8024
1367,228953.93,186877.9957
1368,228973.77,186832.1300
1369,228993.59,186936.0432
1370,229027.32,186836.5780
1371,229034.05,186861.3213
1372,229053.77,186818.1154
1373,229073.58,186888.0540
1374,229094.00,186784.9901
1375,229113.81,186863.6906
1376,229134.18,186910.8751
1377,229154.01,186904.0132
1378,229173.83,186866.6410
1379,229193.61,186872.6984
1380,229213.45,186869.3456
1381,229233.85,186936.2444
1382,229254.04,186912.8197
1383,229273.79,186945.3415
1384,229293.57,186937.9431
1385,229313.43,186947.0403
1386,229333.86,186889.5963
1387,229353.66,186842.0988
1388,229374.23,186836.5780
1389,229393.53,186917.5807
1390,229413.40,186895.8771
1391,229433.79,186837.8520
1392,229453.60,186823.3904
1393,229473.42,186805.4196
1394,229494.47,186801.5081
1395,229513.79,186962.4406
1396,229533.61,186916.8207
1397,229553.44,186842.7023
1398,229573.28,186910.9645
1399,229593.70,186934.9927
1400,229614.50,186923.4145
1401,229633.41,186874.7771
1402,229653.31,186926.1414
1403,229673.17,186823.5916
1404,229693.58,186880.0297
1405,229713.43,186837.0920
1406,229733.89,186976.6116
1407,229753.66,186836.3544
1408,229773.59,186909.6011
1409,229793.45,186879.2698
1410,229813.31,186924.9344
1411,229853.31,186821.0882
1412,229873.19,186895.8995
1413,229893.61,186826.9891
1414,229913.43,186875.0900
1415,229933.26,186855.3087
1416,229973.15,186866.9316
1417,229993.60,186907.8800
1418,230012.85,186902.9626
1419,230033.31,186893.9325
1420,230053.15,186861.2096
1421,230093.37,186901.6886
1422,230113.23,186871.4914
1423,230133.09,186857.7227
1424,230153.52,186806.8501
1425,230173.37,186855.6216
1426,230213.22,186919.6147
1427,230233.11,186852.6265
1428,230252.94,186953.3435
1429,230273.39,186911.3669
1430,230293.19,186873.9054
1431,230333.41,186884.5001
1432,230353.26,186860.2261
1433,230373.07,186871.8266
1434,230392.88,186831.6606
1435,230413.30,186842.7023
1436,230433.45,186884.7683
1437,230453.50,186827.8608
1438,230473.38,186874.1289
1439,230493.20,186892.0103
1440,230512.93,186836.4662
1441,230532.77,186862.9083
1442,230573.43,186856.1134
1443,230592.90,186843.6635
1444,230612.74,186848.9161
1445,230632.59,186885.9529
1446,230653.01,186888.7469
1447,230693.08,186954.3046
1448,230712.96,186878.3757
1449,230732.81,186893.7984
1450,230752.65,186889.1940
1451,230773.09,186888.0987
1452,230812.61,186845.7645
1453,230833.10,186949.4542
1454,230852.93,186880.0968
1455,230872.75,186890.2445
1456,230892.59,186911.6127
1457,230913.11,186907.3883
1458,230932.75,186904.1026
1459,230952.61,186903.4320
1460,230972.40,186831.2135
1461,230992.89,186860.7625
1462,231012.70,186845.5634
1463,231034.99,186890.7362
1464,231052.33,186880.0744
1465,231072.90,186875.4029
1466,231092.74,186890.1998
1467,231112.57,186796.9260
1468,231132.29,186779.2234
1469,231156.31,186841.6294
1470,231172.67,186842.5682
1471,231192.52,186853.0735
1472,231212.29,186812.8404
1473,231232.76,186922.1404
1474,231272.97,186901.2862
1475,231292.23,186911.1657
1476,231312.67,186885.8188
1477,231332.50,186829.5372
1478,231352.30,186901.5768
1479,231392.54,186862.6177
1480,231412.40,186835.0804
1481,231432.21,186869.0550
1482,231452.64,186972.3201
1483,231472.60,186846.5692
1484,231492.60,186918.8100
1485,231512.42,186832.9570
1486,231532.20,186806.2466
1487,231551.96,186819.8141
1488,231572.39,186869.0997
1489,231592.20,186845.7645
1490,231612.19,186861.9025
1491,231632.22,186897.7323
1492,231652.02,186904.0579
1493,231672.42,186850.9054
1494,231692.20,186794.2885
1495,231711.99,186904.4155
1496,231733.01,186873.9277
1497,231752.52,186884.0531
1498,231772.32,186876.7887
1499,231792.18,186897.1512
1500,231812.23,186912.8868
1501,231852.25,186823.7928
1502,231871.87,186845.0269
1503,231892.27,186835.8403
1504,231912.06,186839.8190
1505,231951.84,186866.1270
1506,231972.22,186833.7169
1507,231992.00,186795.2719
1508,232012.41,186882.6002
1509,232032.19,186876.4088
1510,232052.89,186848.9385
1511,232072.12,186870.7761
1512,232091.87,186878.5992
1513,232112.24,186898.7381
1514,232132.01,186916.2619
1515,232172.32,186787.2700
1516,232192.21,186851.1289
1517,232211.98,186932.0422
1518,232231.74,186804.1232
1519,232272.02,186877.8169
1520,232291.85,186896.1900
1521,232311.61,186931.1482
1522,232332.07,186906.0919
1523,232351.83,186875.6935
1524,232374.07,186803.0056
1525,232391.13,186926.0743
1526,232411.59,186858.6838
1527,232432.01,186891.8538
1528,232451.77,186921.0228
1529,232491.88,186831.4147
1530,232511.61,186919.7041
1531,232531.44,186900.0345
1532,232551.81,186890.8703
1533,232571.59,186920.2182
1534,232612.05,186851.9783
1535,232631.88,186847.4409
1536,232651.66,186835.3263
1537,232671.49,186852.0454
1538,232691.88,186819.7471
1539,232731.83,186828.1513
1540,232751.63,186879.3815
1541,232771.48,186824.9327
1542,232791.25,186835.4157
1543,232812.01,186951.6894
1544,232831.68,186863.6906
1545,232851.51,186935.3950
1546,232871.27,186837.2709
1547,232891.66,186801.7763
1548,232911.46,186848.1562
1549,232951.38,186855.1746
1550,232971.80,186854.4817
1551,232991.59,186849.2067
1552,233011.34,186916.2619
1553,233031.13,186904.5272
1554,233051.94,186915.1220
1555,233071.26,186813.7568
1556,233091.67,186904.9966
1557,233111.44,186892.0550
1558,233131.21,186875.7382
1559,233151.61,186871.6702
1560,233171.64,186940.0442
1561,233191.23,186930.0082
1562,233211.04,186897.6206
1563,233231.45,186867.7810
1564,233251.24,186922.2745
1565,233271.01,186835.0804
1566,233292.16,186854.3029
1567,233311.45,186907.5000
1568,233331.26,186928.2201
1569,233351.04,186840.1766
1570,233371.48,186794.2214
1571,233411.54,186850.1455
1572,233431.34,186915.1890
1573,233451.14,186787.8065
1574,233470.96,186878.9569
1575,233510.95,186831.5935
1576,233531.39,186855.5769
1577,233551.22,186856.8733
1578,233570.99,186795.8531
1579,233590.78,186885.9977
1580,233611.55,186895.3854
1581,233631.00,186842.9258
1582,233650.81,186775.5800
1583,233671.23,186873.6371
1584,233691.00,186850.2572
1585,233714.97,186777.1223
1586,233731.04,186871.1114
1587,233750.82,186773.7249
1588,233771.20,186824.3292
1589,233790.98,186844.1775
1590,233810.72,186847.4185
1591,233835.05,186899.0287
1592,233851.08,186832.3311
1593,233870.82,186791.2486
1594,233890.60,186821.0882
1595,233910.99,186888.5234
1596,233950.60,186834.0522
1597,233971.02,186853.7888
1598,233990.85,186865.3446
1599,234010.62,186848.0444
1600,234031.02,186962.9547
1601,234070.59,186854.1688
1602,234091.02,186942.7487
1603,234110.84,186890.9150
1604,234130.60,186812.2816
1605,234151.19,186807.6324
1606,234170.98,186836.7344
1607,234190.89,186952.9858
1608,234210.68,186804.8608
1609,234230.48,186892.8596
1610,234250.81,186928.8906
1611,234270.83,186874.2853
1612,234290.61,186823.9716
1613,234310.49,186845.4963
1614,234330.32,186910.8081
1615,234350.74,186863.6012
1616,234370.52,186836.7121
1617,234393.25,186860.8296
1618,234410.27,186871.6478
1619,234430.72,186798.9376
1620,234450.53,186790.7345
1621,234470.36,186857.0298
1622,234490.78,186841.6965
1623,234511.23,186856.5604
1624,234530.61,186891.8538
1625,234550.45,186825.6480
1626,234570.24,186887.0705
1627,234590.65,187009.0216
1628,234630.63,186851.5089
1629,234650.46,186846.6139
1630,234670.27,186853.8335
1631,234690.68,186826.5867
1632,234730.54,186875.0006
1633,234750.38,186830.6100
1634,234770.22,186926.5437
1635,234790.63,186975.8740
1636,234810.40,186805.1961
1637,234831.61,186904.9966
1638,234850.42,186915.7702
1639,234870.22,186841.8083
1640,234890.02,186849.7431
1641,234910.41,186871.9831
1642,234950.50,186925.1579
1643,234970.36,186803.5868
1644,234990.16,186798.1330
1645,235009.92,186852.4030
1646,235030.39,186917.1783
1647,235070.29,186939.4630
1648,235090.10,186878.4651
1649,235109.85,186882.0637
1650,235130.24,186886.1318
1651,235163.64,186823.9939
1652,235170.36,186825.1786
1653,235190.24,186865.5458
1654,235210.05,186898.4252
1655,235229.82,186803.4974
1656,235250.23,186806.9619
1657,235272.08,186878.6439
1658,235290.13,186829.6936
1659,235309.95,186784.8560
1660,235329.73,186888.3893
1661,235350.12,186869.3903
1662,235369.89,186782.9785
1663,235409.81,186922.6769
1664,235429.64,186865.0988
1665,235450.01,186873.5701
1666,235469.77,186864.0259
1667,235510.01,186808.6159
1668,235529.83,186839.7743
1669,235550.16,186798.4235
1670,235569.90,186807.4760
1671,235589.66,186923.7721
1672,235629.99,186847.6868
1673,235649.78,186810.4711
1674,235669.58,186805.1514
1675,235689.97,186903.8120
1676,235709.92,186857.7451
1677,235729.75,186952.5835
1678,235749.61,186896.1453
1679,235769.99,186859.0415
1680,235789.74,186888.1434
1681,235809.50,186906.6283
1682,235832.23,186897.1065
1683,235849.43,186921.6710
1684,235869.81,186907.4553
1685,235889.57,186886.0424
1686,235909.29,186849.8996
1687,235929.76,186897.7323
1688,235969.98,186806.0008
1689,235989.39,186841.6071
1690,236009.49,186873.9054
1691,236029.75,186849.8996
1692,236049.89,186830.4536
1693,236089.51,186938.2113
1694,236130.14,186921.6263
1695,236149.72,186883.2707
1696,236169.66,186830.0736
1697,236209.77,186768.2040
1698,236229.52,186817.6013
1699,236249.15,186912.5962
1700,236269.49,186934.1210
1701,236289.26,186804.8161
1702,236329.66,187000.0809
1703,236349.45,186906.0248
1704,236369.23,186916.4631
1705,236389.60,186911.2551
1706,236429.44,186856.0910
1707,236449.29,186835.9521
1708,236469.15,186899.2746
1709,236489.61,186925.6720
1710,236509.42,186878.8451
1711,236549.60,186861.8578
1712,236569.43,186821.1776
1713,236589.18,186852.1124
1714,236608.99,186987.4969
1715,236629.42,186928.2201
1716,236649.20,186959.4678
1717,236669.64,186903.7449
1718,236688.89,186945.9674
1719,236709.33,186884.0978
1720,236729.11,186854.0347
1721,236748.91,186883.4719
1722,236769.30,186798.6247
1723,236789.77,186868.5186
1724,236809.05,186897.0841
1725,236828.87,186853.0512
1726,236849.28,186823.3010
1727,236869.13,186803.9891
1728,236889.00,186884.9024
1729,236908.97,186877.8393
1730,236928.87,186881.1697
1731,236949.33,186849.8325
1732,236969.12,186788.8570
1733,236988.93,186861.6119
1734,237029.21,186862.0366
1735,237048.98,186802.5810
1736,237068.76,186879.6945
1737,237089.12,186912.9092
1738,237108.87,186844.9152
1739,237149.20,186974.8235
1740,237169.03,186840.6013
1741,237188.76,186866.1270
1742,237208.60,186958.6408
1743,237229.00,186888.6575
1744,237268.93,186775.8706
1745,237288.74,186919.4806
1746,237308.53,186839.0143
1747,237328.97,186908.7517
1748,237348.76,186876.5429
1749,237388.76,186949.6107
1750,237408.76,186935.0150
1751,237428.55,186884.2319
1752,237449.01,186843.2611
1753,237482.20,186837.8744
1754,237488.96,186896.7041
1755,237508.77,186870.6420
1756,237528.54,186894.9160
1757,237548.35,186911.5233
1758,237568.74,186835.8403
1759,237588.50,186882.3767
1760,237609.04,186936.2667
1761,237628.93,186808.2136
1762,237648.73,186927.7507
1763,237668.54,186880.2533
1764,237688.37,186904.8625
1765,237708.79,186836.0862
1766,237728.56,186880.0297
1767,237748.44,186870.4185
1768,237768.23,186934.8362
1769,237788.63,186844.8704
1770,237808.41,186945.6992
1771,237848.91,186888.5234
1772,237868.73,186845.1834
1773,237888.53,186844.2670
1774,237908.35,186921.5593
1775,237928.13,186870.3514
1776,237952.04,186919.5476
1777,237968.60,186803.6538
1778,237988.39,186789.7958
1779,238008.17,186813.8686
1780,238028.55,186856.6498
1781,238068.11,186852.9171
1782,238088.14,186915.2337
1783,238108.55,186887.2494
1784,238128.38,186884.0531
1785,238148.16,186806.1796
1786,238168.62,186801.1281
1787,238188.53,186921.2463
1788,238208.38,186837.6732
1789,238228.17,186814.7403
1790,238247.95,186868.9433
1791,238268.41,186924.7779
1792,238289.18,186878.5545
1793,238307.95,186915.5243
1794,238328.17,186892.1444
1795,238347.97,186868.7868
1796,238368.35,186854.0570
1797,238388.14,186910.3611
1798,238408.65,186889.7527
1799,238427.91,186886.3553
1800,238448.33,186794.6461
1801,238468.13,186806.6937
1802,238487.90,186857.3651
1803,238528.34,186818.0931
1804,238548.17,186946.4815
1805,238568.02,186853.7664
1806,238587.88,186773.5237
1807,238608.31,186916.4407
1808,238648.17,186809.3759
1809,238667.89,186864.3388
1810,238688.23,186935.0597
1811,238708.04,186854.0794
1812,238727.79,186888.1881
1813,238768.03,186951.3094
1814,238787.89,186942.9722
1815,238807.66,186823.3904
1816,238828.06,186834.7898
1817,238847.82,186849.5420
1818,238888.16,186945.8780
1819,238907.98,186918.2512
1820,238927.76,186841.7189
1821,238947.55,186975.7175
1822,238967.95,186890.1104
1823,239008.15,186830.6100
1824,239027.95,186953.8128
1825,239047.72,186941.6311
1826,239067.51,186834.5663
1827,239087.93,186851.7995
1828,239108.08,186917.1113
1829,239128.02,186822.1834
1830,239147.88,186900.4592
1831,239167.67,186938.0102
1832,239187.46,186850.8160
1833,239211.81,186875.8723
1834,239227.72,186958.4844
1835,239247.55,186764.1807
1836,239267.35,186894.2454
1837,239287.77,186915.0102
1838,239327.90,186866.6634
1839,239347.80,186872.0502
1840,239367.60,186848.5808
1841,239387.40,186834.0746
1842,239407.81,186892.4350
1843,239447.88,186894.4690
1844,239467.81,186837.3156
1845,239487.62,186881.3485
1846,239507.41,186901.6886
1847,239527.25,186899.0734
1848,239547.59,186839.3049
1849,239567.66,186861.8578
1850,239587.51,186809.7559
1851,239607.31,186931.0141
1852,239627.16,186943.8440
1853,239647.58,186908.5059
1854,239667.38,186920.6429
1855,239687.50,186926.9907
1856,239707.51,186840.3330
1857,239727.31,186837.6955
1858,239747.15,186800.2340
1859,239766.94,186839.9084
1860,239807.38,186897.0841
1861,239827.21,186845.5634
1862,239847.01,186848.9385
1863,239867.40,186853.6323
1864,239907.54,186925.9849
1865,239927.32,186851.7101
1866,239947.17,186865.2552
1867,239966.95,186855.9346
1868,239987.36,186820.0824
1869,240007.53,186740.4655
1870,240027.33,186848.6479
1871,240047.17,186907.4777
1872,240066.97,186939.7759
1873,240087.33,186818.1154
1874,240127.09,186832.6887
1875,240146.91,186885.8635
1876,240167.31,186884.0083
1877,240187.17,186842.4788
1878,240206.96,186856.9851
1879,240246.89,186878.1969
1880,240266.71,186869.2786
1881,240287.17,186844.4234
1882,240306.95,186875.8053
1883,240326.73,186918.8324
1884,240366.82,186894.7819
1885,240386.70,186858.4827
1886,240407.14,186950.5718
1887,240426.92,186912.6856
1888,240446.69,186860.3826
1889,240487.20,186961.6359
1890,240507.01,186861.9248
1891,240526.79,186887.4282
1892,240546.55,186901.4874
1893,240566.90,186871.8266
1894,240607.01,186808.7724
1895,240626.79,186849.6090
1896,240646.53,186840.8918
1897,240666.88,186875.6041
1898,240686.51,186835.1251
1899,240707.86,186824.1504
1900,240726.47,186877.2581
1901,240746.85,186812.4381
1902,240766.66,186986.4911
1903,240786.43,186874.4195
1904,240806.83,186876.0288
1905,240826.90,186900.9957
1906,240846.71,186885.3047
1907,240866.52,186867.5128
1908,240886.27,186899.4981
1909,240906.65,186876.8111
1910,240946.25,186887.1823
1911,240966.67,186851.4419
1912,240986.44,186831.9064
1913,241006.80,186840.8024
1914,241026.56,186922.2969
1915,241066.76,186818.4954
1916,241086.59,186895.9889
1917,241106.34,186837.3603
1918,241126.10,186897.2406
1919,241166.59,186805.7102
1920,241186.65,186882.6002
1921,241206.52,186866.8199
1922,241226.34,186936.4679
1923,241246.12,186836.0639
1924,241267.13,186853.5653
1925,241286.38,186895.6983
1926,241306.18,186898.8276
1927,241326.58,186864.5400
1928,241346.36,186824.0163
1929,241366.14,186772.1379
1930,241387.31,186804.1679
1931,241406.14,186854.6158
1932,241425.93,186866.8646
1933,241446.35,186904.2590
1934,241466.13,186863.8024
1935,241506.09,186881.2814
1936,241525.87,186871.3796
1937,241546.29,186808.6383
1938,241566.09,186816.2155
1939,241606.11,186821.5129
1940,241625.96,186872.0055
1941,241646.38,186818.6519
1942,241666.19,186886.4894
1943,241686.05,186857.9909
1944,241726.29,186866.1270
1945,241746.10,186879.8956
1946,241765.92,186872.7878
1947,241785.71,186885.4165
1948,241806.12,186846.2563
1949,241826.05,186813.9580
1950,241845.97,186850.5031
1951,241865.77,186865.7246
1952,241886.16,186890.0657
1953,241905.93,186772.9872
1954,241945.77,186817.3108
1955,241966.21,186841.2271
1956,241986.03,186837.4273
1957,242005.81,186838.0085
1958,242025.59,186849.2961
1959,242065.60,186818.7189
1960,242086.00,186913.3562
1961,242105.77,186870.1950
1962,242125.55,186902.6050
1963,242165.68,186884.2989
1964,242185.48,186858.0580
1965,242205.91,186872.3407
1966,242225.68,186839.7295
1967,242246.28,186914.6749
1968,242265.67,186825.2903
1969,242285.47,186840.5566
1970,242305.89,186904.8178
1971,242325.65,186859.7567
1972,242345.41,186815.0756
1973,242368.63,186919.7711
1974,242385.32,186907.5224
1975,242405.75,186785.9513
1976,242425.51,186767.1087
1977,242445.91,186799.2505
1978,242485.64,186851.7995
1979,242505.46,186828.9784
1980,242525.28,186904.9519
1981,242545.68,186863.1765
1982,242578.80,186863.6236
1983,242585.60,186869.2786
1984,242605.41,186892.4126
1985,242625.79,186848.2009
1986,242645.55,186854.2135
1987,242665.31,186911.0763
1988,242686.77,186843.4846
1989,242705.80,186854.4817
1990,242725.63,186815.6120
1991,242745.41,186834.2087
1992,242765.19,186971.1801
1993,242805.59,186869.2115
1994,242825.34,186815.7014
1995,242845.12,186827.3690
1996,242865.50,186869.1891
1997,242905.47,186818.9871
1998,242925.30,186834.7675
1999,242945.09,186852.4477
2000,242965.65,186806.4031
2001,242985.46,186816.1261
2002,243005.92,186853.5206
2003,243025.59,186832.1747
2004,243045.32,186889.9986
2005,243065.11,186868.7645
2006,243084.88,186780.9668
2007,243125.20,186811.5664
2008,243145.03,186845.6975
2009,243165.43,186893.7761
2010,243185.20,186927.3037
2011,243205.18,186827.7937
2012,243225.20,186843.9317
2013,243244.99,186871.6031
2014,243265.42,186862.9083
2015,243285.20,186921.6934
2016,243304.98,186848.6032
2017,243327.05,186832.4652
2018,243344.94,186897.3523
2019,243365.37,186829.6042
2020,243385.31,186862.3272
2021,243405.12,186887.8752
2022,243444.86,186851.3972
2023,243465.30,186792.2321
2024,243485.09,186917.4689
2025,243504.87,186862.0142
2026,243524.67,186870.9773
2027,243564.84,186855.3981
2028,243584.63,186854.1241
2029,243604.98,186808.6159
2030,243624.79,186815.7238
2031,243644.78,186827.0785
2032,243664.88,186852.6712
2033,243684.73,186837.5391
2034,243705.14,186931.2376
2035,243724.89,186827.8161
2036,243744.68,186875.8947
2037,243766.84,186875.6488
2038,243784.56,186872.7431
2039,243804.92,186840.8695
2040,243824.68,186917.9383
2041,243844.99,186853.1182
2042,243884.85,186896.2348
2043,243904.68,186981.3502
2044,243924.45,186852.6489
2045,243944.85,186793.5061
2046,243978.09,186909.7129
2047,243984.57,186901.5545
2048,244004.44,186749.0485
2049,244024.83,186866.8869
2050,244044.67,186855.1970
2051,244064.44,186933.4728
2052,244084.85,186921.1793
2053,244104.68,187009.3793
2054,244124.81,186837.3379
2055,244144.64,186855.8899
2056,244164.41,186893.4631
2057,244184.80,186937.1608
2058,244204.58,186824.2845
2059,244224.60,186998.7175
2060,244244.49,186954.1481
2061,244264.27,186876.3417
2062,244284.70,187016.1295
2063,244304.47,186919.9947
2064,244324.27,186902.6050
2065,244344.78,186897.6653
2066,244364.24,186886.1988
2067,244384.66,186896.6147
2068,244404.39,186932.1987
2069,244424.18,186944.8721
2070,244444.60,186827.7714
2071,244464.74,186904.9072
2072,244484.23,186853.1406
2073,244504.05,186853.2076
2074,244524.45,186973.7059
2075,244544.21,186915.5690
2076,244564.04,186878.3981
2077,244585.27,186816.1708
2078,244604.02,186883.1590
2079,244624.44,186863.1095
2080,244644.21,186868.9880
2081,244664.04,186939.7536
2082,244704.56,186949.1637
2083,244724.39,186864.3388
2084,244744.18,186865.0094
2085,244763.97,186821.2223
2086,244804.02,186891.8762
2087,244824.45,186818.7636
2088,244844.23,186876.3641
2089,244864.07,186819.3671
2090,244883.84,186880.6332
2091,244904.78,186906.9189
2092,244924.10,186779.5363
2093,244943.91,186894.3349
2094,244964.30,186806.4478
2095,244984.07,186949.9683
2096,245024.25,186827.2126
2097,245044.02,186926.2755
2098,245063.82,186837.8744
2099,245084.20,186895.0501
2100,245117.50,186828.0619
2101,245124.13,186907.3659
2102,245143.95,186907.3883
2103,245163.73,186830.6771
2104,245184.18,186886.3776
2105,245203.96,186874.7547
2106,245223.78,186902.0686
2107,245244.18,186874.4642
2108,245264.10,186874.9782
2109,245283.90,186903.1861
2110,245303.69,186941.6758
2111,245324.09,186864.3835
2112,245343.94,186800.3458
2113,245364.37,186894.0890
2114,245383.58,186816.9978
2115,245404.00,186888.0093
2116,245423.76,186819.5012
2117,245443.57,186825.6927
2118,245467.28,186878.3310
2119,245483.88,186850.2572
2120,245503.68,186907.6341
2121,245523.44,186863.3106
2122,245543.82,186835.8627
2123,245583.86,186854.0570
2124,245603.69,186889.4622
2125,245623.44,186957.2327
2126,245643.86,186849.5867
2127,245663.62,186912.7303
2128,245703.74,186845.2281
2129,245723.59,186850.1455
2130,245743.43,186852.2242
2131,245763.81,186942.2570
2132,245783.77,186837.8520
2133,245803.65,186864.0035
2134,245823.54,186878.8898
2135,245843.37,186972.9683
2136,245863.22,186922.5651
2137,245883.18,186957.7244
2138,245923.34,186846.9045
2139,245943.22,186785.1913
2140,245963.60,186825.8044
2141,245983.43,186898.8499
2142,246023.26,186859.6002
2143,246043.71,186813.7568
2144,246063.53,186891.9209
2145,246083.32,186852.3136
2146,246103.17,186771.4897
2147,246123.37,186878.5769
2148,246143.25,186874.7771
2149,246163.71,186921.7381
2150,246183.57,186912.5068
2151,246203.42,186897.0618
2152,246223.34,186969.6379
2153,246244.01,186913.4232
2154,246263.44,186942.6146
2155,246283.32,186851.7548
2156,246303.16,186847.9773
2157,246323.01,186863.3553
2158,246343.43,186883.9860
2159,246363.85,186848.5361
2160,246383.38,186801.9775
2161,246403.29,186880.4544
2162,246423.17,186814.0027
2163,246443.03,186890.4233
2164,246462.88,186892.5691
2165,246485.57,186882.6002
2166,246502.67,186936.3114
2167,246523.17,186874.9335
2168,246543.04,186874.9335
2169,246562.91,186834.6334
2170,246603.43,186875.8053
2171,246623.34,186833.5158
2172,246643.20,186802.1563
2173,246663.05,186899.4310
2174,246682.91,186837.6508
2175,246723.30,186918.3406
2176,246743.19,186839.1484
2177,246763.06,186914.1385
2178,246782.90,186842.0318
2179,246802.76,186906.8295
2180,246823.95,186830.8336
2181,246842.71,186862.5283
2182,246862.55,186925.1803
2183,246882.99,186803.2515
2184,246902.86,186874.6653
2185,246927.11,186852.7606
2186,246943.03,186825.3797
2187,246962.87,186873.9724
2188,246982.74,186914.5855
2189,247002.59,186897.3747
2190,247042.48,186968.0509
2191,247062.41,186879.9180
2192,247082.88,186871.6702
2193,247102.74,186895.2066
2194,247122.59,186855.3758
2195,247143.93,186880.4321
2196,247162.74,186912.6186
2197,247182.60,186875.1794
2198,247202.97,186907.5000
2199,247222.91,186856.7616
2200,247262.85,186771.1321
2201,247282.72,186915.7031
2202,247302.61,186854.4370
2203,247322.43,186909.6234
2204,247362.31,186929.2483
2205,247382.22,186937.7419
2206,247402.69,186908.5282
2207,247422.52,186909.3329
2208,247442.30,186887.7858
2209,247463.31,186882.5108
2210,247482.72,186868.2727
2211,247502.60,186807.2078
2212,247522.42,186928.8459
2213,247542.21,186873.2125
2214,247562.69,186822.8540
2215,247584.23,186859.5108
2216,247602.66,186908.7070
2217,247622.51,186922.4533
2218,247642.30,186910.2046
2219,247662.09,186912.7750
2220,247702.15,186921.5593
2221,247722.66,186788.3876
2222,247742.42,186866.8199
2223,247762.13,186867.4681
2224,247782.59,186794.1990
2225,247822.58,186745.8299
2226,247842.43,186893.5749
2227,247862.19,186863.0871
2228,247881.94,186829.5148
2229,247902.62,186861.7013
2230,247922.02,186826.0279
2231,247942.53,186876.1182
2232,247962.30,186904.2590
2233,247982.16,186793.4167
2234,248001.93,186915.6584
2235,248024.83,186902.4485
2236,248041.81,186899.7440
2237,248062.22,186890.6692
2238,248081.94,186828.1513
2239,248102.37,186891.1833
2240,248141.98,186856.6945
2241,248161.81,186836.7791
2242,248182.22,186803.9221
2243,248202.40,186831.1241
2244,248222.32,186864.6517
2245,248242.49,186840.1766
2246,248261.73,186849.4302
2247,248282.14,186825.1115
2248,248301.99,186835.8627
2249,248321.76,186863.1318
2250,248341.93,186823.0328
2251,248362.30,186894.2901
2252,248381.99,186866.8646
2253,248402.09,186867.6245
2254,248421.86,186797.7753
2255,248442.14,186769.7909
2256,248461.84,186864.4282
2257,248482.12,186834.1193
2258,248501.88,186829.4701
2259,248521.56,186861.5001
2260,248541.91,186861.2990
2261,248561.71,186845.5857
2262,248581.49,186837.7179
2263,248602.47,186828.4643
2264,248621.71,186773.4119
2265,248641.53,186812.7733
2266,248661.97,186826.9220
2267,248681.83,186758.9951
2268,248721.99,186854.6829
2269,248741.77,186796.1437
2270,248761.58,186894.3125
2271,248781.43,186840.1095
2272,248801.75,186889.3281
2273,248841.83,186837.1591
2274,248861.63,186892.4797
2275,248881.41,186860.0026
2276,248901.85,186792.0086
2277,248941.40,186879.0239
2278,248961.17,186820.1047
2279,248981.60,186770.8862
2280,249001.37,186878.7110
2281,249021.78,186779.4693
2282,249042.52,186835.5498
2283,249061.31,186788.6558
2284,249081.67,186791.4498
2285,249101.40,186850.0337
2286,249121.22,186802.0892
2287,249141.58,186809.1077
2288,249164.50,186882.3096
2289,249181.02,186787.0018
2290,249201.43,186923.1686
2291,249221.18,186816.3943
2292,249241.60,186918.7430
2293,249261.35,186857.1192
2294,249284.64,186887.7411
2295,249301.16,186831.9735
2296,249321.60,186814.6956
2297,249341.45,186914.9655
2298,249361.20,186857.6556
2299,249381.57,186984.1665
2300,249421.14,186820.9541
2301,249441.39,186780.6986
2302,249461.11,186878.9122
2303,249481.48,186858.7062
2304,249501.26,186880.2756
2305,249523.42,186852.2689
2306,249541.10,186850.7490
2307,249560.96,186768.3604
2308,249581.36,186840.9812
2309,249601.13,186880.0521
2310,249641.17,186788.0747
2311,249660.99,186886.0871
2312,249680.78,186920.8887
2313,249701.17,186903.9461
2314,249720.98,186840.2660
2315,249761.27,186862.2378
2316,249781.08,186923.3027
2317,249800.87,187030.8816
2318,249820.64,186883.3154
2319,249840.97,186792.5227
2320,249861.47,186949.4766
2321,249880.70,186860.9190
2322,249901.09,186896.6147
2323,249920.92,186851.8889
2324,249940.72,186929.4271
2325,249961.12,186945.4756
2326,249982.04,186888.0540
2327,250000.81,186906.7848
2328,250021.18,186842.1435
2329,250041.00,186885.7741
2330,250060.82,186905.8907
2331,250100.57,186855.5099
2332,250121.06,186843.6411
2333,250140.90,186890.4009
2334,250160.74,186815.8132
2335,250180.57,186864.9647
2336,250220.72,186867.1328
2337,250240.59,186951.4212
2338,250261.05,186801.5304
2339,250280.88,186791.1369
2340,250320.64,186814.2486
2341,250340.50,186880.3427
2342,250360.37,186810.2029
2343,250380.85,186833.9181
2344,250400.68,186905.0413
2345,250420.55,186795.2496
2346,250440.90,186884.1648
2347,250460.78,186831.9958
2348,250480.63,186842.7247
2349,250500.47,186910.7410
2350,250520.30,186807.4760
2351,250540.77,186902.4709
2352,250560.53,186855.1970
2353,250580.42,186896.3689
2354,250600.28,186940.3571
2355,250620.73,186840.0648
2356,250640.57,186850.3019
2357,250660.42,186804.0785
2358,250680.69,186822.3846
2359,250700.55,186859.0862
2360,250720.38,186830.2524
2361,250740.27,186887.2717
2362,250760.10,186951.7118
2363,250782.02,186852.4030
2364,250800.74,186811.0299
2365,250820.59,186881.6614
2366,250840.40,186991.1626
2367,250860.25,186901.2862
2368,250880.04,186887.6517
2369,250900.71,186793.7297
2370,250920.00,186850.5925
2371,250940.44,186821.8705
2372,250960.27,186845.9433
2373,250980.07,186802.5810
2374,251020.33,186813.2427
2375,251040.19,186866.2611
2376,251060.03,186770.5286
2377,251080.46,186780.2516
2378,251100.13,186904.5720
2379,251120.02,186854.6158
2380,251139.90,186843.6411
2381,251159.75,186798.3565
2382,251180.16,186863.7130
2383,251199.95,186880.4768
2384,251224.30,186901.7333
2385,251239.93,186848.2903
2386,251259.77,186834.8792
2387,251280.22,186918.8771
2388,251300.04,186961.7477
2389,251319.83,186828.3078
2390,251360.09,186925.1132
2391,251379.94,186870.2844
2392,251399.76,186835.9745
2393,251420.24,186872.6760
2394,251460.01,186851.0395
2395,251479.87,186867.2445
2396,251499.75,186871.9161
2397,251519.57,186889.7304
2398,251540.01,186883.0025
2399,251579.67,186840.6013
2400,251599.54,186860.4496
2401,251619.99,186837.9414
2402,251639.80,186836.4885
2403,251659.66,186822.6081
2404,251699.50,186841.7412
2405,251719.95,186794.2661
2406,251739.78,186927.9295
2407,251759.62,186825.5585
2408,251780.05,186787.3147
2409,251799.56,186871.5584
2410,251819.42,186887.4058
2411,251839.83,186838.3661
2412,251859.62,186823.8375
2413,251879.40,186851.7324
2414,251902.05,186848.4691
2415,251919.04,186879.0686
2416,251939.48,186839.9307
2417,251959.92,186992.4590
2418,251979.75,186827.6373
2419,252019.51,186925.6720
2420,252039.38,186872.2290
2421,252059.20,186882.8237
2422,252079.62,186904.2814
2423,252099.44,187009.2228
2424,252139.62,186864.1376
2425,252159.41,186932.4222
2426,252179.20,186842.6800
2427,252199.61,186813.0416
2428,252219.39,186815.5897
2429,252239.82,186835.6839
2430,252259.50,186863.8471
2431,252279.32,186850.1902
2432,252299.73,186845.6975
2433,252319.49,186856.3369
2434,252339.26,186836.8685
2435,252359.64,186810.2029
2436,252379.42,186729.2225
2437,252399.27,186870.9102
2438,252419.11,186868.6974
2439,252439.51,186910.2493
2440,252459.30,186890.1998
2441,252479.12,186909.8023
2442,252499.19,186845.7645
2443,252519.04,186937.7866
2444,252539.46,186902.5826
2445,252559.24,186848.7597
2446,252579.03,186947.7779
2447,252619.48,186815.4556
2448,252639.29,186884.4777
2449,252658.89,186877.1911
2450,252679.26,186887.7634
2451,252718.98,186978.6456
2452,252738.81,186827.7714
2453,252759.21,186854.5488
2454,252779.00,186804.7267
2455,252798.79,186861.4331
2456,252839.24,186999.8351
2457,252859.02,186886.8470
2458,252878.81,186814.6956
2459,252899.21,186976.1199
2460,252919.07,186903.8120
2461,252939.72,186855.2417
2462,252959.14,186851.6207
2463,252979.03,186880.1638
2464,252998.86,186879.6945
2465,253018.65,186884.1648
2466,253058.98,186838.8802
2467,253078.83,186877.6157
2468,253098.67,186803.8327
2469,253118.52,186976.9469
2470,253139.14,186926.0743
2471,253158.39,186879.4262
2472,253178.87,186908.0141
2473,253198.63,186879.4486
2474,253218.48,186873.5477
2475,253238.90,186853.2076
2476,253258.71,186909.6458
2477,253278.71,186933.0257
2478,253298.60,186868.8762
2479,253318.41,186931.4387
2480,253338.86,186858.6391
2481,253358.67,186833.8287
2482,253381.76,186888.4340
2483,253398.14,186822.1164
2484,253418.60,186820.1718
2485,253438.44,186932.1316
2486,253458.87,186925.4708
2487,253478.71,186830.2971
2488,253498.73,186897.7770
2489,253518.60,186914.2950
2490,253538.42,186879.9403
2491,253558.85,186902.6273
2492,253578.66,186851.5760
2493,253601.80,186861.0755
2494,253618.05,186871.9161
2495,253638.51,186943.7099
2496,253658.31,186843.8646
2497,253678.70,186845.2504
2498,253698.49,186863.3777
2499,253738.76,186901.5545
2500,253758.68,186832.4205
2501,253778.51,186941.2512
2502,253798.31,186900.0793
2503,253838.71,186853.2971
2504,253858.57,186925.5379
2505,253878.38,186953.9022
2506,253898.19,186931.7517
2507,253918.61,186988.7039
2508,253958.23,186919.2794
2509,253978.68,186845.0940
2510,253998.48,186859.2426
2511,254018.25,186784.4313
2512,254038.05,186884.8801
2513,254058.69,186961.0995
2514,254077.98,186943.1511
2515,254098.45,186859.5108
2516,254118.23,186898.7605
2517,254138.00,186933.4728
2518,254158.38,186941.3853
2519,254178.55,186853.2971
2520,254198.56,186910.3163
2521,254218.37,186849.6761
2522,254238.14,187043.0857
2523,254257.91,186898.6934
2524,254298.28,186910.4281
2525,254318.10,186884.4107
2526,254337.89,186812.5722
2527,254358.28,186879.8509
2528,254378.06,186885.9306
2529,254418.05,186833.2028
2530,254437.89,186835.2368
2531,254458.29,186873.5701
2532,254478.04,186889.8198
2533,254518.19,186935.3056
2534,254538.02,186867.2445
2535,254557.82,186890.6915
2536,254578.22,186897.9558
2537,254598.01,186894.6254
2538,254618.16,186894.2901
2539,254638.01,186888.9257
2540,254657.98,186832.7782
2541,254677.83,186958.0820
2542,254697.63,186812.2146
2543,254718.03,186875.3582
2544,254738.49,186863.2883
2545,254757.76,186840.9365
2546,254777.57,186944.0451
2547,254797.94,186902.0909
2548,254817.77,186930.4553
2549,254857.95,186949.7672
2550,254877.76,186799.8317
2551,254897.52,186854.1464
2552,254917.90,186778.3293
2553,254938.00,186857.3651
2554,254957.50,186763.0631
2555,254977.93,186748.6015
2556,254997.75,186924.6885
2557,255017.50,186863.3330
2558,255037.85,186837.8073
2559,255058.92,186873.8830
2560,255077.48,186923.8168
2561,255097.90,186838.7461
2562,255117.68,186901.7556
2563,255137.46,186874.1736
2564,255177.65,186882.1532
2565,255197.44,186933.8080
2566,255217.87,186935.0597
2567,255237.63,186922.2522
2568,255277.88,186829.8054
2569,255297.78,186741.9183
2570,255317.54,186897.9782
2571,255337.33,186899.7440
2572,255357.74,186871.3796
2573,255391.54,186891.2727
2574,255397.75,186831.1912
2575,255417.55,186810.4264
2576,255437.34,186882.5555
2577,255457.75,186800.6140
2578,255477.54,186922.2522
2579,255497.50,186912.9986
2580,255517.71,186840.4895
2581,255537.76,186887.0929
2582,255557.55,186879.1580
2583,255577.34,186896.1006
2584,255597.17,186875.8723
2585,255617.57,186828.9784
2586,255637.14,186910.4952
2587,255657.60,186828.9784
2588,255677.40,186912.9315
2589,255697.15,186880.6332
2590,255716.93,186928.6001
2591,255739.64,186872.3184
2592,255757.33,186770.4168
2593,255777.15,186879.9180
2594,255797.53,186890.3339
2595,255817.31,186815.3661
2596,255837.13,186945.0957
2597,255877.42,186943.1064
2598,255897.27,186883.8295
2599,255917.02,186858.8403
2600,255937.40,186867.7363
2601,255957.19,186792.5003
2602,255997.47,186843.2164
2603,256017.28,186838.5002
2604,256037.07,186944.6486
2605,256056.85,186956.9644
2606,256077.26,186919.7041
2607,256117.30,186920.7099
2608,256137.15,186882.6672
2609,256156.89,186856.9851
2610,256176.66,186913.1327
2611,256197.01,186918.6759
2612,256236.82,186870.2173
2613,256256.67,186873.1007
2614,256277.04,186829.7160
2615,256296.80,186883.2931
2616,256317.12,186845.7645
2617,256336.86,186861.6119
2618,256356.64,186907.2989
2619,256377.01,186935.0597
2620,256396.74,186918.7430
2621,256417.12,186845.0269
2622,256437.08,186801.7986
2623,256456.53,186843.1270
2624,256476.96,186886.6906
2625,256496.73,186865.9258
2626,256516.47,186889.0375
2627,256536.85,186896.5924
2628,256556.65,186760.0903
2629,256577.13,186828.9560
2630,256596.98,186908.6176
2631,256616.76,186822.9881
2632,256636.52,186897.3747
2633,256656.90,186880.3650
2634,256676.65,186785.9066
2635,256697.43,186830.5430
2636,256716.78,186881.9296
2637,256736.53,186924.2191
2638,256756.90,186795.1602
2639,256776.63,186830.1183
2640,256797.00,186909.3329
2641,256819.02,186827.4584
2642,256836.40,186845.6528
2643,256856.75,186832.5770
2644,256876.52,186859.6897
2645,256896.31,186827.6149
2646,256916.71,186740.2866
2647,256937.83,186847.8879
2648,256956.34,186827.9949
2649,256976.66,186802.3798
2650,256996.42,186845.7422
2651,257016.82,186854.9511
2652,257056.75,186857.8568
2653,257076.57,186853.2524
2654,257096.37,186893.3514
2655,257116.75,186856.8063
2656,257136.54,186994.8953
2657,257176.54,186867.0210
2658,257196.23,186827.3690
2659,257216.63,186787.5382
2660,257236.44,186858.9073
2661,257256.39,186806.6266
2662,257276.56,186916.9101
2663,257296.34,186933.3386
2664,257316.16,186883.3825
2665,257336.58,186903.2532
2666,257356.37,186927.6837
2667,257376.66,186859.5779
2668,257396.32,186839.6625
2669,257416.15,186891.5856
2670,257436.40,186836.6003
2671,257456.19,186862.6848
2672,257476.04,186763.2419
2673,257500.53,186860.6061
2674,257515.98,186836.7344
2675,257536.43,186938.0996
2676,257556.20,186975.5834
2677,257576.05,186820.3953
2678,257596.45,186893.0832
2679,257636.45,187004.0372
2680,257656.29,186922.4533
2681,257676.06,186937.9207
2682,257695.91,186902.4932
2683,257716.34,186886.3553
2684,257756.01,186873.2348
2685,257775.83,186892.1667
2686,257796.23,186946.7497
2687,257816.02,186853.9453
2688,257835.80,186919.2794
2689,257876.16,186848.0891
2690,257895.93,186834.0969
2691,257915.71,186853.5653
2692,257936.13,186791.4051
2693,257955.91,186880.6109
2694,257995.95,186881.5944
2695,258015.79,186829.8054
2696,258036.21,186938.9936
2697,258056.07,186782.6208
2698,258075.88,186968.6767
2699,258116.13,186868.8762
2700,258135.92,186973.2812
2701,258155.69,186861.3884
2702,258176.03,186874.0618
2703,258215.99,186952.6953
2704,258235.80,186838.1202
2705,258255.58,186916.1278
2706,258276.01,186869.5691
2707,258295.79,186943.4193
2708,258316.14,186938.5913
2709,258336.04,186863.3553
2710,258355.82,186835.7509
2711,258375.58,186856.5828
2712,258395.38,186884.7907
2713,258435.50,186837.3826
2714,258455.94,186872.5866
2715,258475.70,186799.1835
2716,258495.49,186926.7449
2717,258515.91,186878.8227
2718,258555.81,186894.4690
2719,258575.62,186917.6030
2720,258595.40,186853.6323
2721,258615.78,186874.7100
2722,258635.56,186914.7643
2723,258675.80,186933.2269
2724,258695.60,186960.9877
2725,258715.40,186855.0852
2726,258735.29,186783.5373
2727,258755.77,186960.5184
2728,258795.52,186870.4855
2729,258815.33,186937.0714
2730,258835.72,186868.8092
2731,258855.50,186888.4563
2732,258875.26,186961.7254
2733,258915.30,186841.6741
2734,258935.10,186881.1026
2735,258955.50,186824.2174
2736,258975.27,186907.4330
2737,258995.78,186873.1901
2738,259015.09,186896.0336
2739,259035.09,186869.1444
2740,259055.49,186833.8734
2741,259075.29,186856.6945
2742,259095.07,186877.4369
2743,259135.49,186820.4623
2744,259155.34,186805.5761
2745,259175.12,186870.1056
2746,259195.51,186805.5984
2747,259215.30,186897.2853
2748,259255.49,186827.8831
2749,259275.31,186922.9451
2750,259295.33,186886.8694
2751,259315.12,186841.6071
2752,259335.54,186857.5886
2753,259375.09,186906.7401
2754,259394.90,186889.8422
2755,259415.29,186830.0065
2756,259435.07,186850.9948
2757,259454.84,186831.1018
2758,259495.18,186944.7827
2759,259515.03,186815.8802
2760,259534.81,186834.1863
2761,259555.22,186831.6159
2762,259575.49,186888.6352
2763,259595.42,186764.3371
2764,259615.31,186805.3079
2765,259635.13,186829.7830
2766,259654.91,186769.4780
2767,259675.32,186909.8246
2768,259696.44,186890.6021
2769,259715.03,186840.9812
2770,259734.83,186889.8645
2771,259755.27,186934.0315
2772,259775.04,186785.2584
2773,259815.22,186805.5537
2774,259835.03,186796.3448
2775,259854.81,186907.3436
2776,259875.19,186813.6898
2777,259895.35,186879.7392
2778,259914.69,186851.2630
2779,259935.18,186793.6403
2780,259954.97,186898.4029
2781,259974.82,186918.0053
2782,259994.64,186899.6993
2783,260015.23,186893.6643
2784,260035.05,186891.9209
2785,260055.04,186852.5147
2786,260074.81,186933.2045
2787,260094.53,186913.4903
2788,260114.91,186916.3737
2789,260134.67,186827.5926
2790,260155.29,186886.4223
2791,260174.52,186876.9452
2792,260194.91,186838.0085
2793,260214.66,186767.9581
2794,260234.41,186822.1834
2795,260254.79,186845.2951
2796,260274.95,186839.3943
2797,260294.82,186900.9510
2798,260314.62,186886.1765
2799,260334.38,186956.5621
2800,260354.77,186878.6663
2801,260395.18,186869.5244
2802,260414.37,186873.8607
2803,260434.37,186899.9675
2804,260454.46,186897.6876
2805,260474.69,186926.4096
2806,260514.70,186882.7343
2807,260535.24,186802.1563
2808,260554.74,186917.9830
2809,260574.81,186830.2301
2810,260594.73,186854.1464
2811,260634.54,186801.9551
2812,260654.27,186852.8277
2813,260674.78,186918.4747
2814,260694.44,186834.7228
2815,260714.27,186909.4670
2816,260754.16,186807.2078
2817,260774.53,186874.7994
2818,260794.31,186876.0958
2819,260814.07,186839.7519
2820,260834.44,186884.6565
2821,260854.56,186844.9152
2822,260874.35,186919.3688
2823,260894.15,186856.2028
2824,260914.53,186786.4430
2825,260934.29,186825.1562
2826,260954.04,186907.1648
2827,260975.34,186843.1717
2828,260994.09,186923.2357
2829,261013.87,186883.0025
2830,261034.26,186848.4020
2831,261053.92,186834.0299
2832,261094.37,186887.0482
2833,261114.22,186862.7071
2834,261134.10,186852.5371
2835,261153.92,186886.9811
2836,261174.35,186829.3360
2837,261214.13,186820.2612
2838,261233.98,186828.0619
2839,261253.78,186851.0842
2840,261274.19,186856.0240
2841,261293.95,186904.2367
2842,261334.15,186836.0415
2843,261353.98,186915.9713
2844,261373.79,186890.6692
2845,261394.19,186843.5740
2846,261413.99,186833.0240
2847,261453.79,186819.1883
2848,261473.61,186904.1473
2849,261494.06,186793.3720
2850,261513.83,186834.5886
2851,261533.62,186826.5420
2852,261566.91,186816.7967
2853,261573.63,186891.3621
2854,261593.97,186781.9279
2855,261613.72,186829.0454
2856,261633.57,186816.7296
2857,261654.03,186842.5459
2858,261693.99,186880.2533
2859,261713.78,186874.3077
2860,261733.57,186910.0481
2861,261753.97,186833.3369
2862,261773.74,186886.7800
2863,261793.78,186930.1647
2864,261813.62,186898.7381
2865,261833.44,186842.9706
2866,261853.86,186846.2116
2867,261873.65,186799.2505
2868,261913.97,186849.0279
2869,261933.78,186898.0452
2870,261953.62,186876.2970
2871,261973.44,186920.2182
2872,261993.86,186954.9081
2873,262033.82,186886.2659
2874,262053.67,186867.8704
2875,262073.58,186913.0433
2876,262093.42,186834.4545
2877,262113.93,186933.3163
2878,262133.89,186895.0054
2879,262153.72,186851.4419
2880,262173.56,186831.5265
2881,262193.39,186783.4032
2882,262213.80,186888.9928
2883,262233.58,186808.6606
2884,262253.67,186860.1590
2885,262273.58,186788.7452
2886,262293.43,186827.8608
2887,262313.26,186827.0114
2888,262333.67,186870.0385
2889,262353.44,186858.1250
2890,262373.74,186827.3020
2891,262393.60,186962.8653
2892,262413.43,186909.7129
2893,262433.31,186814.7850
2894,262453.72,186845.8986
2895,262493.69,186842.3000
2896,262513.45,186817.4672
2897,262533.17,186774.3507
2898,262553.55,186820.8647
2899,262573.40,186783.3585
2900,262613.23,186882.0414
2901,262633.08,186856.0910
2902,262653.57,186853.8335
2903,262673.42,186853.9229
2904,262693.34,186834.6781
2905,262713.19,186844.9375
2906,262733.11,186861.5001
2907,262753.00,186856.1804
2908,262773.44,186907.0753
2909,262793.30,186871.6031
2910,262833.22,186859.8014
2911,262853.10,186831.8170
2912,262872.94,186927.1919
2913,262893.40,186887.0258
2914,262913.23,186839.9531
2915,262933.82,186802.4021
2916,262953.03,186775.1330
2917,262972.91,186849.6314
2918,262993.37,186824.5974
2919,263013.22,186832.6440
2920,263033.05,186898.8052
2921,263054.35,186821.1553
2922,263073.14,186747.7968
2923,263093.04,186935.8420
2924,263112.93,186791.6510
2925,263132.79,186757.5869
2926,263173.32,186719.0748
2927,263193.23,186861.5448
2928,263213.15,186850.3690
2929,263233.01,186842.9706
2930,263252.89,186777.8152
2931,263292.75,186739.8620
2932,263312.65,186816.0143
2933,263333.13,186826.0950
2934,263352.99,186783.8055
2935,263372.88,186837.2932
2936,263412.84,186870.0609
2937,263432.76,186840.6683
2938,263452.64,186794.1096
2939,263473.16,186720.1924
2940,263493.02,186832.0629
2941,263532.92,186796.6130
2942,263552.82,186895.2736
2943,263572.71,186874.1289
2944,263592.57,186846.8598
2945,263612.97,186964.4523
2946,263632.99,186845.9657
2947,263652.98,186905.6895
2948,263672.91,186927.0131
2949,263692.78,186874.2853
2950,263712.62,186787.6053
2951,263732.42,186904.4825
2952,263752.88,186904.9072
2953,263772.80,186789.3934
2954,263792.68,186825.9609
2955,263812.53,186832.8899
2956,263832.32,186838.2990
2957,263852.85,186828.7772
2958,263872.88,186813.3992
2959,263892.85,186885.3495
2960,263912.72,186799.0941
2961,263932.57,186878.6216
2962,263952.90,186872.0055
2963,263992.40,186933.4951
2964,264012.28,186886.1541
2965,264032.64,186842.0318
2966,264052.54,186926.9460
2967,264085.08,186886.1094
2968,264092.27,186881.0356
2969,264112.23,186870.2844
2970,264132.71,186906.0919
2971,264152.57,186928.9130
2972,264172.42,186855.0181
2973,264212.75,186922.6322
2974,264232.66,186930.8129
2975,264252.52,186965.2569
2976,264272.31,186914.0491
2977,264292.21,186974.3541
2978,264312.18,186886.6906
2979,264332.03,186863.1989
2980,264352.44,186838.6120
2981,264372.22,186884.5001
2982,264392.01,186851.5536
2983,264416.48,186860.6731
2984,264432.10,186837.3826
2985,264451.92,186863.6459
2986,264472.37,186830.9230
2987,264492.20,186919.0335
2988,264511.98,186827.0561
2989,264552.11,186853.0512
2990,264571.93,186880.2086
2991,264592.41,186897.0394
2992,264612.20,186916.9325
2993,264632.15,186799.7199
2994,264652.47,186931.7517
2995,264672.32,186764.7171
2996,264692.19,186897.4864
2997,264711.97,186919.4135
2998,264731.75,186977.6174
2999,264752.25,186702.3334
3000,264771.95,186890.2668
3001,264791.78,186887.6293
3002,264812.20,186840.8248
3003,264831.99,186864.8306
3004,264851.77,186837.6955
3005,264871.84,186869.0774
3006,264892.19,186786.1748
3007,264912.05,186892.3232
3008,264931.84,186945.4086
3009,264951.64,186834.7898
3010,264972.08,186960.5184
3011,264994.66,186893.0608
3012,265011.53,186843.7976
3013,265031.98,186804.1679
3014,265051.79,186847.0833
3015,265071.61,186875.7829
3016,265111.65,186888.3669
3017,265132.11,186880.8568
3018,265151.92,186867.4234
3019,265171.71,186797.7530
3020,265191.73,186844.4011
3021,265212.05,186878.1522
3022,265231.91,186879.5156
3023,265251.71,186920.6205
3024,265271.52,186818.8307
3025,265291.93,186886.6682
3026,265325.03,186903.7226
3027,265331.57,186847.3962
3028,265351.43,186939.3960
3029,265371.87,186864.8529
3030,265391.69,186927.2143
3031,265411.50,186898.2464
3032,265431.32,186898.4923
3033,265451.94,186952.2929
3034,265471.78,186876.7887
3035,265491.60,186909.6234
3036,265511.40,186914.1832
3037,265531.83,186929.7847
3038,265554.31,186754.6365
3039,265571.17,186846.7927
3040,265591.63,186972.7448
3041,265611.47,186945.2074
3042,265631.28,186953.1870
3043,265651.69,186894.8489
3044,265675.34,186933.0481
3045,265691.56,186864.1824
3046,265711.39,186930.6341
3047,265731.20,186928.7565
3048,265751.63,186891.3174
3049,265791.70,186933.9868
3050,265811.49,186835.5274
3051,265831.30,186988.9721
3052,265851.10,186837.1591
3053,265871.51,186899.2075
3054,265911.19,187006.3171
3055,265930.95,186800.7034
3056,265951.38,186879.4039
3057,265971.17,186910.9869
3058,265990.99,186836.5780
3059,266011.43,186879.8286
3060,266031.22,186841.7636
3061,266051.03,186864.6741
3062,266071.47,186904.1026
3063,266091.27,186901.5321
3064,266131.22,186844.0658
3065,266151.02,186801.1281
3066,266170.89,186870.2173
3067,266191.33,186773.8590
3068,266231.09,186881.2591
3069,266251.04,186852.2242
3070,266270.86,186825.1562
3071,266291.30,186881.0356
3072,266311.11,186871.5137
3073,266351.21,186936.9596
3074,266371.08,186870.4855
3075,266390.92,186877.7052
3076,266410.75,186826.7655
3077,266444.86,186835.3933
3078,266450.89,186875.6711
3079,266470.75,186855.5322
3080,266491.20,186880.2086
3081,266511.03,186868.2057
3082,266530.89,186821.3341
3083,266550.75,186973.4600
3084,266571.20,186765.2312
3085,266591.05,186880.0297
3086,266610.88,186825.9609
3087,266630.68,186866.2164
3088,266651.12,186895.6760
3089,266671.86,186904.6167
3090,266690.62,186818.6072
3091,266711.07,186895.1172
3092,266730.79,186883.4496
3093,266750.59,186828.0619
3094,266770.38,186833.8957
3095,266794.39,186894.6254
3096,266810.65,186866.9540
3097,266830.50,186855.7557
3098,266850.96,186793.9979
3099,266870.79,186909.8917
3100,266890.58,186959.6243
3101,266912.79,186768.9416
3102,266930.89,186896.2795
3103,266950.80,186890.4680
3104,266970.63,186870.0609
3105,266990.47,186840.4895
3106,267030.44,186831.9511
3107,267050.37,186939.7312
3108,267070.85,186888.0540
3109,267090.66,186901.5768
3110,267110.46,186940.2453
3111,267150.80,186863.0871
3112,267170.59,186931.8411
3113,267190.41,186854.7723
3114,267210.25,186843.4623
3115,267230.67,186902.5156
3116,267270.59,186830.4983
3117,267290.29,186856.2698
3118,267310.70,186885.1483
3119,267330.46,186828.5313
3120,267350.26,186919.9947
3121,267371.61,186879.2251
3122,267390.36,186904.9296
3123,267410.18,186914.0714
3124,267430.57,186926.2978
3125,267450.49,186948.2696
3126,267470.29,186823.3010
3127,267491.17,186896.1006
3128,267510.51,186884.1648
3129,267530.27,186901.4651
3130,267550.03,186834.8792
3131,267570.43,186856.7169
3132,267610.03,186886.1094
3133,267630.49,186895.9442
3134,267650.33,186932.6457
3135,267670.12,186911.8363
3136,267710.20,186853.8335
3137,267730.00,186930.4106
3138,267750.38,186844.3340
3139,267770.14,186984.3900
3140,267789.90,186878.3757
3141,267811.95,186837.0920
3142,267830.39,186881.5720
3143,267850.24,186855.0628
3144,267870.00,186926.9907
3145,267890.39,186826.8326
3146,267910.20,186987.5640
3147,267930.45,186877.4593
3148,267949.84,186931.9528
3149,267970.26,186895.7654
3150,267990.05,186925.4708
3151,268009.83,186879.4262
3152,268050.20,186902.9179
3153,268070.03,186952.5611
3154,268089.84,186878.8674
3155,268110.26,186911.8139
3156,268130.04,186859.4885
3157,268170.30,186890.3339
3158,268190.14,186821.8705
3159,268209.94,186936.7585
3160,268229.73,186859.8461
3161,268249.51,186870.2173
3162,268289.88,186918.7877
3163,268309.77,186901.2862
3164,268329.61,186826.0056
3165,268350.00,186954.5281
3166,268389.88,186877.3475
3167,268409.76,186961.1219
3168,268429.60,186923.7497
3169,268450.00,186884.3660
3170,268469.79,186840.2436
3171,268490.31,186886.1318
3172,268509.53,186951.1753
3173,268529.93,186948.3590
3174,268549.76,186913.2668
3175,268569.53,186904.9072
3176,268609.48,186923.4145
3177,268629.29,186914.1832
3178,268649.76,186889.9986
3179,268669.53,186937.8984
3180,268709.54,186980.8137
3181,268729.37,186918.0053
3182,268749.78,186930.1647
3183,268769.61,187002.1597
3184,268789.39,186961.5242
3185,268809.76,186900.7051
3186,268829.64,186915.4572
3187,268849.43,186884.9918
3188,268869.21,186965.2793
3189,268889.61,186888.9928
3190,268912.28,186883.8072
3191,268929.03,186910.1599
3192,268949.44,186897.1288
3193,268969.35,186960.6525
3194,268989.20,186834.7898
3195,269029.30,186812.6169
3196,269049.69,186895.4524
3197,269069.48,186877.4593
3198,269089.28,186977.5057
3199,269109.55,186917.0442
3200,269129.34,186959.9372
3201,269149.20,186957.9256
3202,269169.57,186936.8926
3203,269189.37,186973.7282
3204,269209.17,186893.5525
3205,269231.35,186914.9655
3206,269249.31,186955.6680
3207,269269.13,186930.3435
3208,269289.56,186909.3776
3209,269309.35,186763.5995
3210,269349.47,186833.0017
3211,269369.30,186864.1824
3212,269389.16,186771.2438
3213,269409.00,186870.9773
3214,269442.82,186926.6331
3215,269449.30,186834.3428
3216,269469.14,186833.5605
3217,269489.03,186926.8566
3218,269508.84,186947.0626
3219,269529.25,186930.8352
3220,269549.68,186960.8536
3221,269568.90,186979.8303
3222,269589.33,186938.9936
3223,269609.04,187004.2607
3224,269628.85,187062.9340
3225,269668.98,186990.7379
3226,269688.74,186847.7538
3227,269709.14,186926.9907
3228,269728.91,186889.9986
3229,269749.22,186866.0823
3230,269769.26,186901.5545
3231,269789.13,186920.1288
3232,269808.94,186977.4163
3233,269828.70,186896.1230
3234,269849.12,186907.0530
3235,269870.45,186914.5408
3236,269889.13,186954.5951
3237,269908.91,186959.6243
3238,269928.70,186950.7954
3239,269949.10,186912.1268
3240,269989.18,186881.4826
3241,270009.01,186901.3086
3242,270028.81,186919.1900
3243,270048.61,186853.6100
3244,270069.56,186928.7118
3245,270088.44,186995.4541
3246,270108.87,186994.8506
3247,270128.66,186947.8673
3248,270148.47,186959.1773
3249,270168.88,186992.5484
3250,270190.14,186862.9307
3251,270208.75,186977.3939
3252,270228.56,186907.7235
3253,270248.41,186900.5039
3254,270268.64,186989.1286
3255,270308.78,186945.8109
3256,270328.61,186909.6458
3257,270348.40,186880.3427
3258,270368.79,186896.6818
3259,270388.58,186914.4291
3260,270428.38,186985.3064
3261,270448.80,186952.8070
3262,270468.58,186926.7672
3263,270488.38,186964.2287
3264,270508.40,186912.0374
3265,270528.80,186892.8373
3266,270548.65,186934.3445
3267,270568.49,186868.8092
3268,270588.29,187014.9001
3269,270608.06,186997.6223
3270,270629.21,186977.5951
3271,270648.29,186923.2580
3272,270668.13,186893.0161
3273,270688.57,186870.9996
3274,270708.40,186948.0908
3275,270748.56,186938.9936
3276,270768.39,186931.3493
3277,270788.19,186881.9743
3278,270807.98,186870.9326
3279,270848.58,186890.0880
3280,270868.39,186836.3321
3281,270888.19,186941.9217
3282,270907.95,186914.8314
3283,270928.41,186891.1162
3284,270948.06,186871.0890
3285,270967.88,186902.9179
3286,270988.26,186904.5943
3287,271008.02,186883.4049
3288,271027.79,186937.8760
3289,271051.90,186975.8517
3290,271068.26,186840.4225
3291,271088.07,186945.2745
3292,271107.88,186873.5030
3293,271128.27,186905.2425
3294,271168.04,186867.3116
3295,271187.91,186882.9131
3296,271207.77,186991.1179
3297,271228.17,186931.3717
3298,271247.98,186764.5383
3299,271267.78,186913.0209
3300,271287.73,186944.5369
3301,271308.14,186899.3640
3302,271327.90,186827.2349
3303,271347.68,186895.5642
3304,271371.94,186909.4670
3305,271387.71,186908.7741
3306,271408.14,186850.1678
3307,271427.91,186837.2932
3308,271447.73,186939.5077
3309,271487.82,186791.0028
3310,271507.64,186860.6508
3311,271528.07,187005.2889
3312,271547.91,186884.4554
3313,271567.75,186811.7675
3314,271587.88,186885.5730
3315,271607.60,186903.9237
3316,271628.05,186931.7964
3317,271647.89,186919.5700
3318,271667.68,186816.0367
3319,271690.66,186877.7499
3320,271707.13,186897.2406
3321,271727.56,186914.0714
3322,271747.94,186911.8810
3323,271767.76,186971.7613
3324,271807.72,186914.8538
3325,271827.55,186839.1037
3326,271847.36,186952.2929
3327,271867.77,186873.0336
3328,271887.58,186822.7199
3329,271927.64,186867.9821
3330,271947.33,186817.1766
3331,271967.75,186884.4777
3332,271987.54,186957.8362
3333,272007.31,186824.0833
3334,272027.32,186856.4487
3335,272047.79,186878.4651
3336,272067.59,186919.0335
3337,272087.33,186933.5398
3338,272107.12,186852.5371
3339,272147.31,186851.1513
3340,272167.13,186840.8248
3341,272187.50,186881.4826
3342,272207.26,186882.5555
3343,272247.70,186956.5174
3344,272267.49,186944.4698
3345,272287.27,186921.6487
3346,272307.02,186873.7713
3347,272327.37,186836.9803
3348,272347.63,186901.2192
3349,272367.45,186877.1911
3350,272387.24,186817.8695
3351,272407.59,186835.6615
3352,272427.33,186932.4669
3353,272467.49,186835.2145
3354,272487.31,186892.7926
3355,272507.10,186932.9587
3356,272527.49,186842.8588
3357,272566.98,186796.7471
3358,272587.38,186900.9286
3359,272607.32,186866.3952
3360,272627.64,186783.0232
3361,272647.09,186837.6285
3362,272681.73,186855.3311
3363,272687.27,186811.9016
3364,272712.54,186910.9869
3365,272729.43,186784.0737
3366,272746.71,186877.6381
3367,272767.46,186891.7868
3368,272787.95,186823.7704
3369,272827.77,186785.0125
3370,272848.85,186797.3283
3371,272869.26,186896.3018
3372,272889.12,186870.7314
3373,272907.11,186839.6625
3374,272929.04,186834.1863
3375,272946.87,186894.7819
3376,272967.08,186778.6422
3377,272987.23,186897.2182
3378,273046.92,186829.4477
3379,273066.82,186975.2705
3380,273086.70,186828.4196
3381,273107.06,186851.9336
3382,273126.74,186807.3642
3383,273167.15,186887.9423
3384,273186.85,186908.2600
3385,273206.52,186919.5029
3386,273226.77,186920.1511
3387,273247.06,186863.3553
3388,273286.86,186876.2299
3389,273306.66,186896.7488
3390,273327.03,186900.1910
3391,273346.78,186944.2686
3392,273366.53,186830.9006
3393,273406.94,186867.4681
3394,273426.73,186860.9414
3395,273446.55,186849.1396
3396,273466.94,186794.9143
3397,273486.71,186940.6477
3398,273506.59,186833.0911
3399,273526.51,186840.0201
3400,273546.94,186896.0559
3401,273566.75,186901.5992
3402,273586.53,186869.8820
3403,273606.52,186915.7702
3404,273626.87,186900.1687
3405,273646.68,186854.2805
3406,273666.51,186882.4214
3407,273686.29,186942.6146
3408,273706.69,186966.6204
3409,273728.22,186763.0407
3410,273746.71,186875.8947
3411,273766.46,186933.0928
3412,273786.25,186867.5798
3413,273806.63,186976.1199
3414,273846.34,186754.9717
3415,273866.16,186860.8072
3416,273886.59,186830.8112
3417,273906.75,186880.3874
3418,273926.60,186849.3631
3419,273946.49,186815.5003
3420,273966.33,186854.7276
3421,273986.11,186836.6003
3422,274006.50,186865.4788
3423,274026.28,186847.1280
3424,274066.42,186852.9841
3425,274086.18,186812.9745
3426,274106.02,186889.7751
3427,274126.41,186833.6052
3428,274146.18,186832.1970
3429,274168.66,186822.4740
3430,274186.07,186841.3389
3431,274206.52,186830.7665
3432,274226.37,186810.9852
3433,274246.18,186827.4137
3434,274266.04,186922.2522
3435,274286.69,186839.9978
3436,274306.41,186880.0521
3437,274326.17,186912.2833
3438,274345.95,186873.5701
3439,274366.33,186817.2213
3440,274406.32,186832.5546
3441,274426.08,186857.3874
3442,274445.89,186893.3067
3443,274466.30,186834.6334
3444,274486.61,186856.9851
3445,274506.34,186897.9111
3446,274526.15,186959.6243
3447,274545.95,186919.1676
3448,274565.72,186840.8248
3449,274586.13,186944.7157
3450,274606.29,186921.8722
3451,274626.31,186839.9307
3452,274646.15,186902.7615
3453,274665.94,186923.5933
3454,274685.74,186797.3506
3455,274706.14,186854.0347
3456,274726.14,186817.2660
3457,274746.02,186857.2533
3458,274765.90,186905.5554
3459,274785.80,186901.1745
3460,274805.69,186906.1589
3461,274826.14,186877.9510
3462,274845.95,186860.9861
3463,274865.66,186853.4982
3464,274886.09,186914.7867
3465,274905.91,186843.6188
3466,274925.67,186846.8598
3467,274946.07,186847.4856
3468,274965.89,186958.9984
3469,274986.04,186894.2007
3470,275005.94,186869.9938
3471,275025.70,186840.4001
3472,275045.49,186856.0240
3473,275065.91,186912.0151
3474,275105.66,186944.0004
3475,275125.49,186932.2881
3476,275145.91,186862.6401
3477,275165.70,186925.8285
3478,275185.50,186826.6761
3479,275206.38,186868.7868
3480,275225.67,186863.1989
3481,275245.48,186878.3087
3482,275265.30,186911.0763
3483,275285.76,186837.2932
3484,275305.63,186887.2046
3485,275325.76,186946.1015
3486,275345.61,186803.5868
3487,275365.41,186845.7645
3488,275385.18,186882.3320
3489,275405.57,186880.7897
3490,275445.71,186893.6419
3491,275465.56,186949.4095
3492,275485.37,186952.2259
3493,275505.12,186884.4554
3494,275545.57,186876.2970
3495,275565.43,186873.1007
3496,275585.22,186832.1523
3497,275605.65,186879.9627
3498,275625.44,186902.7615
3499,275646.10,186906.1142
3500,275665.63,186873.4136
3501,275685.53,186886.6459
3502,275705.34,186866.4399
3503,275725.14,186827.1679
3504,275745.56,186819.9259
3505,275766.02,186886.0200
3506,275785.18,186883.6731
3507,275804.99,186848.8938
3508,275825.43,186937.7196
3509,275845.14,186842.9929
3510,275864.94,186914.8761
3511,275885.55,186845.9880
3512,275904.82,186897.5312
3513,275925.31,186887.3388
3514,275945.09,186887.8081
3515,275964.89,186875.0677
3516,276005.25,186827.2349
3517,276025.05,186860.4496
3518,276044.84,186868.7868
3519,276065.28,186867.8257
3520,276105.08,186903.2755
3521,276124.92,186872.0502
3522,276144.78,187010.0051
3523,276165.20,186943.8887
3524,276184.98,186867.3116
3525,276204.93,186940.6924
3526,276224.80,186970.8225
3527,276244.61,186952.4494
3528,276264.99,186937.4290
3529,276284.79,186863.6459
3530,276307.88,186921.6710
3531,276324.56,186883.5166
3532,276344.97,186860.9637
3533,276364.78,186951.5330
3534,276385.16,186773.3449
3535,276424.64,186848.1338
3536,276445.06,186912.7080
3537,276464.83,186775.7589
3538,276484.63,186837.4497
3539,276504.94,186932.0199
3540,276525.04,186910.8751
3541,276544.88,186932.3105
3542,276564.65,186972.1636
3543,276585.07,186879.7615
3544,276604.85,186888.8587
3545,276625.17,186879.1580
3546,276644.96,186928.7565
3547,276664.71,186916.0831
3548,276684.55,186882.1308
3549,276704.97,186858.2368
3550,276745.00,186893.1055
3551,276764.78,186886.4670
3552,276784.56,186841.4730
3553,276804.96,186807.1854
3554,276838.53,186898.7158
3555,276844.44,186917.6924
3556,276864.85,186888.6128
3557,276884.70,186938.6360
3558,276904.51,186950.6165
3559,276924.31,186880.9015
3560,276944.83,186877.1687
3561,276964.63,186907.5894
3562,276984.32,186822.2505
3563,277004.78,186841.7412
3564,277024.59,186843.3729
3565,277064.36,186865.7693
3566,277084.24,186903.8120
3567,277104.70,186848.2456
3568,277124.46,186872.2513
3569,277164.32,186921.4028
3570,277184.20,186814.0921
3571,277204.71,186915.1890
3572,277224.51,186897.1735
3573,277244.33,186933.9645
3574,277264.95,186880.8568
3575,277284.18,186859.0191
3576,277304.61,186865.4341
3577,277324.40,186952.0918
3578,277344.20,186903.0520
3579,277368.61,186870.6867
3580,277384.23,186905.6672
3581,277404.05,186790.0193
3582,277423.85,186846.5692
3583,277444.26,186894.6254
3584,277484.26,186910.7187
3585,277504.10,186905.3319
3586,277523.93,186887.4282
3587,277544.35,186926.9460
3588,277564.29,186868.8986
3589,277584.47,186943.3075
3590,277604.31,187038.0118
3591,277624.11,186908.9976
3592,277643.91,186846.4351
3593,277664.32,186890.0433
3594,277684.62,186901.6215
3595,277703.93,186943.8887
3596,277723.73,186961.6583
3597,277744.19,186867.1775
3598,277763.92,186788.7452
3599,277804.22,186829.5819
3600,277824.08,186967.3356
3601,277843.81,186947.9790
3602,277863.64,186886.9588
3603,277904.28,186893.3514
3604,277924.13,186916.2396
3605,277943.85,186834.0746
3606,277963.65,186803.2292
3607,277984.06,186911.8810
3608,278003.73,186935.4397
3609,278023.57,186883.6284
3610,278043.99,186888.0093
3611,278063.77,186930.5223
3612,278083.55,186935.2609
3613,278124.01,186845.6081
3614,278143.86,186814.5615
3615,278163.67,186880.1638
3616,278184.06,186814.0697
3617,278203.78,186878.3087
3618,278243.84,186889.6857
3619,278263.66,186922.8557
3620,278283.46,186974.8682
3621,278303.86,186896.9500
3622,278323.66,186854.4593
3623,278363.52,186925.2697
3624,278383.42,186861.8131
3625,278403.86,186929.7847
3626,278423.67,186861.2543
3627,278443.53,186874.3971
3628,278483.44,186860.5167
3629,278503.89,186893.6643
3630,278523.70,186875.8723
3631,278543.54,186893.0161
3632,278563.39,186862.0589
3633,278583.51,186865.9705
3634,278603.41,186869.7703
3635,278623.26,186894.2231
3636,278643.67,186909.2211
3637,278663.43,186874.7100
3638,278683.28,186859.6673
3639,278703.35,186913.8479
3640,278723.24,186770.6850
3641,278743.65,186920.5758
3642,278763.42,186785.1689
3643,278783.26,186869.2115
3644,278803.66,186801.1728
3645,278823.41,186782.1738
3646,278843.37,186860.8072
3647,278863.22,186883.3825
3648,278883.10,186855.6440
3649,278903.54,186857.6780
3650,278923.39,186876.9675
3651,278943.82,186862.6401
3652,278963.21,186876.8334
3653,278983.10,186856.2922
3654,279002.94,186805.0620
3655,279023.39,186846.1221
3656,279063.03,186872.0949
3657,279082.94,186917.4689
3658,279103.40,186883.3154
3659,279123.26,186820.0377
3660,279163.00,186900.8616
3661,279182.93,186866.8646
3662,279203.35,186862.9530
3663,279223.14,186886.1765
3664,279242.95,186922.0957
3665,279264.49,186869.8597
3666,279283.31,187036.0896
3667,279303.22,186845.2951
3668,279323.09,186821.4458
3669,279342.96,186852.6936
3670,279383.11,186820.9988
3671,279403.03,186949.3201
3672,279422.91,186763.8230
3673,279442.79,186917.3795
3674,279462.68,186903.8567
3675,279483.11,186922.9674
3676,279502.99,186895.1842
3677,279522.90,186860.2484
3678,279542.74,186983.8983
3679,279562.60,186879.5156
3680,279583.11,186892.4573
3681,279603.09,186881.4379
3682,279623.01,186857.7674
3683,279642.87,186877.1240
3684,279662.73,186953.4999
3685,279682.61,186878.4204
3686,279703.12,186862.0142
3687,279722.78,186844.8257
3688,279742.72,186905.1531
3689,279762.60,186881.6167
3690,279783.11,186975.1588
3691,279802.97,186914.1832
3692,279822.93,186840.1989
3693,279843.09,186891.7197
3694,279862.31,186880.8120
3695,279882.89,186849.4079
3696,279902.72,186899.9004
3697,279922.58,186923.5709
3698,279943.04,186828.8666
3699,279962.41,186883.7625
3700,279982.92,186926.0296
3701,280002.77,186875.9394
3702,280022.63,186794.4002
3703,280062.66,186925.9402
3704,280082.56,186926.2308
3705,280102.39,186885.4165
3706,280122.90,186844.9822
3707,280142.74,186923.9509
3708,280162.55,186942.5476
3709,280182.41,186860.7402
3710,280202.22,186876.3641
3711,280222.69,186818.2048
3712,280242.45,186858.1921
3713,280266.33,186861.0531
3714,280282.63,186901.1074
3715,280302.42,186870.6867
3716,280322.20,186886.8023
3717,280342.68,186926.4543
3718,280382.45,186835.0357
3719,280402.29,186835.5051
3720,280422.12,186905.7342
3721,280442.59,186860.5837
3722,280462.42,186839.3272
3723,280483.70,186798.6470
3724,280502.25,186834.0299
3725,280522.13,186925.0461
3726,280542.58,186863.9812
3727,280562.30,186824.9103
3728,280602.06,186846.2116
3729,280621.92,186872.0055
3730,280642.33,186807.0289
3731,280662.22,186884.2542
3732,280695.98,186840.2436
3733,280702.27,186904.3484
3734,280722.14,186925.7390
3735,280741.91,186846.7256
3736,280762.31,186791.3604
3737,280782.17,186846.2786
3738,280802.02,186796.8366
3739,280822.21,186899.4981
3740,280842.11,186888.8810
3741,280861.90,186826.4303
3742,280882.32,186830.2524
3743,280902.18,186865.9928
3744,280924.28,186830.4983
3745,280941.79,186863.0648
3746,280962.22,186921.1346
3747,280982.02,186830.5430
3748,281001.81,186896.9947
3749,281022.23,186855.1522
3750,281043.52,186848.9608
3751,281062.26,186901.2192
3752,281082.14,186802.4021
3753,281101.95,186893.1502
3754,281121.76,186855.2193
3755,281162.00,186953.9022
3756,281181.84,186895.8101
3757,281201.66,186872.0278
3758,281222.12,186840.5566
3759,281255.72,186921.5593
3760,281261.64,186915.3678
3761,281282.04,186897.5982
3762,281301.86,186945.3415
3763,281321.66,186815.0756
3764,281341.50,186833.3146
3765,281361.29,186903.0520
3766,281381.90,186804.3244
3767,281401.76,186828.8666
3768,281421.61,186883.4496
3769,281441.45,186851.6654
3770,281461.86,186815.7461
3771,281501.71,186889.9763
3772,281521.61,186889.9092
3773,281541.59,186851.7771
3774,281591.64,186837.8073
3775,282402.05,186935.2385
3776,282421.87,186981.4843
3777,282441.69,186877.5934
3778,282461.85,186904.0802
3779,282481.66,186858.6168
3780,282501.54,186902.8509
3781,282521.37,186834.0746
3782,282541.18,186921.7381
3783,282560.98,186852.6042
3784,282581.00,186952.8517
3785,286279.05,186965.4357
3786,286298.89,186851.6430
3787,286318.72,186927.1919
3788,286349.25,186986.2899
3789,289516.90,186821.8929
3790,289550.09,186868.6303
3791,289556.83,186872.8548
3792,289576.65,186806.8278
3793,289596.41,186848.7149
3794,289616.20,186923.4592
3795,289636.01,186923.8839
3796,289656.65,186846.1668
3797,289676.11,186895.0054
3798,289696.11,186863.5342
3799,289716.49,186838.5226
3800,289736.24,186846.4127
3801,289756.45,186852.8724
3802,289776.21,186779.6704
3803,289796.55,186783.8949
3804,289816.58,186905.9801
3805,294195.43,186864.2941
3806,294214.68,186787.6053
3807,294234.46,186894.1784
3808,294258.73,186804.1903
3809,294275.01,186844.9822
3810,294294.81,186856.2698
3811,294314.57,186824.4857
3812,294334.35,186794.7802
3813,294354.78,186895.6313
3814,294394.84,186747.4392
3815,294414.67,186772.8978
3816,294434.47,186817.9366
3817,294454.24,186872.7654
3818,294474.71,186803.7656
3819,294514.85,186818.9424
3820,294535.89,186777.9940
3821,294715.07,186812.8404
3822,294755.77,186892.0997
3823,294775.14,186888.1881
3824,294794.83,186968.5873
3825,294815.29,186887.6740
3826,294835.33,186907.8130
3827,294854.79,186910.4505
3828,294875.26,186926.3202
3829,294895.08,186868.2504
3830,294914.90,186881.2144
3831,294934.71,186876.1629
3832,294955.12,186875.9170
3833,294975.43,186927.6166
3834,295639.22,186834.6781
3835,295655.59,186799.6082
3836,295673.01,186795.5625
3837,295692.87,186935.8197
3838,295753.40,186884.7907
3839,295772.70,186798.8482
3840,295793.17,186853.2300
3841,307347.56,186932.9140
3842,307387.02,186872.7431
3843,307406.82,186906.0472
3844,307426.66,186837.3603
3845,307446.44,186934.5456
3846,307487.34,186804.0785
3847,307506.56,186921.8946
3848,307526.35,186979.4503
3849,307546.76,186865.2329
3850,307566.55,186902.1580
3851,307586.68,186930.8129
3852,307605.81,186877.0346
3853,307625.67,186849.0055
3854,307646.09,186814.7179
3855,307665.91,186833.7393
3856,307685.70,186774.6189
3857,307707.13,186886.8694
3858,307725.62,186912.3727
3859,307745.42,186909.1988
3860,307765.20,186975.2929
3861,307784.98,186923.1239
3862,307804.83,186911.7916
3863,307828.40,186810.1358
3864,307844.55,186930.9694
3865,307864.95,186967.2686
3866,307884.72,186919.9499
3867,307905.11,186896.5030
3868,307924.87,186875.4476
3869,307948.56,186870.5973
3870,307964.70,186818.7413
3871,307985.15,186823.5022
3872,308004.92,186908.1482
3873,308025.33,186917.9383
3874,308065.40,186886.0871
3875,308085.15,186837.6508
3876,308104.92,186877.7499
3877,308125.30,186911.6798
3878,308145.06,186798.1553
3879,308185.36,186750.4120
3880,308205.14,186888.5905
3881,308245.27,186917.8489
3882,309324.14,186878.9122
3883,309343.98,186843.3505
3884,309376.96,186841.0036
3885,309384.17,186895.4971
3886,309403.99,186943.6651
3887,309424.40,186950.7730
3888,312222.57,186893.0161
3889,323635.47,904.0162
3890,335789.28,186838.1426
3891,337187.47,186809.4876
3892,337210.08,186763.1301
3893,337227.43,186818.1601
3894,337247.30,186958.7973
3895,337267.75,186819.9036
3896,337287.55,186848.5361
3897,337327.69,186902.2474
3898,337387.63,186792.2768
3899,347491.91,186832.5993
